   3.9562257e-04   2.2966432e-04   3.5710947e-04   7.6461170e-04   6.6938388e-05   1.8760048e-04   3.0249596e-04   5.4122636e-04   4.1607502e-04   1.9126534e-04   9.5994787e-05   1.4236261e-04   9.7313270e-05   3.0721011e-04   3.6054701e-04   4.7113982e-04  -1.1883046e-04   2.2945555e-04   8.6184649e-05  -1.8121615e-04  -1.9033111e-04   2.9201867e-04   2.5035237e-05   1.6986270e-04  -1.3983752e-04  -1.4416344e-04  -5.3140026e-04   1.0419988e-04   4.4743612e-04   6.9261331e-04  -1.5381626e-04   5.8399590e-05   1.1314203e-03   3.0332388e-04   3.5128582e-04   5.4167939e-04   4.7190569e-04  -1.4164123e-04   4.7250965e-04   1.4368555e-04   5.9938908e-04   8.4227991e-05   4.2393975e-04   3.5121644e-04  -4.3280794e-05   4.8202730e-04  -5.1455219e-05   3.8116265e-04  -1.2713420e-04   9.2605909e-04
   3.6504335e-04   2.1931522e-04   3.5943193e-04   7.8308198e-04   5.2845367e-05   1.0797592e-04   3.7587443e-04   4.6182016e-04  -8.1759895e-04   2.0980001e-04   8.1150072e-05   1.2341353e-04   5.8247508e-05   3.6505435e-04   4.5105052e-04   4.5299839e-04  -1.0993172e-04   4.1160450e-04  -4.5231989e-04  -1.6913773e-04  -1.7206871e-04   2.8165345e-04   5.1884035e-05   1.3411434e-04   9.7406628e-05  -8.8157823e-05  -5.7973975e-04   1.8147589e-04   6.1359699e-04   6.7902071e-04   5.0259681e-05   2.0606995e-04   3.8289733e-04   2.1019166e-04   4.1236606e-04   2.1673211e-04   6.0921290e-04  -1.0055720e-04   5.9370685e-04   3.8288272e-04   4.5461222e-04   2.8677305e-04   4.5167256e-04   3.9365375e-04  -3.6454937e-04   1.0798101e-03  -2.7854071e-04   4.1892310e-04   1.0156672e-03   7.0407643e-04
   4.0204258e-04   2.3142935e-04   3.4027972e-04   7.7981345e-04   4.9254628e-05   1.1773824e-04   3.3573006e-04   4.6207794e-04  -4.9279630e-04   2.0652935e-04   1.1057802e-04   1.3196756e-04   6.7633599e-05   3.2288613e-04   3.3166775e-04   4.5946118e-04  -1.1852793e-04  -2.0129186e-05   4.4675055e-04  -2.0062015e-04  -1.8518305e-04   2.8378042e-04   3.5613644e-05   1.4771252e-04  -1.7908012e-04  -4.7675825e-05  -5.7979161e-04   1.0588713e-04   4.9146655e-04   6.8585254e-04  -8.3392901e-05   2.2559226e-04   2.5510666e-04   4.4773845e-04   3.2979983e-04   7.6958572e-04   6.1637734e-04  -1.0872447e-04   4.9092574e-04   5.8374968e-05   5.7745475e-04   4.9163878e-04   4.3495392e-04   4.6834693e-04  -1.2662403e-04   5.0963653e-04  -2.7933298e-04   3.8025563e-04   7.2340405e-04   1.6051321e-03
   3.7036245e-04   2.2058890e-04   3.1624731e-04   7.3058938e-04   5.7242571e-05   1.0854673e-04   2.6348489e-04   4.5454066e-04   2.6213211e-05   1.8926561e-04   1.0493438e-04   1.1789482e-04   4.4224667e-05   2.7155239e-04   3.1350565e-04   4.3702812e-04  -1.1606402e-04   3.8116057e-05   7.5686153e-04  -2.2442586e-04  -2.0919094e-04   2.3978610e-04  -1.3749773e-04   1.4185112e-04  -1.6686811e-04   1.5370786e-04  -7.2142162e-04   1.2562645e-04   5.2056933e-04   6.8010512e-04   5.9093534e-05   5.7642588e-05   1.3913681e-03   4.3480514e-04   3.5944203e-04   1.4979705e-04   7.9831580e-04  -1.1567587e-04   4.7484445e-04   2.8946711e-04   6.8756624e-04   1.1353905e-04   4.2165746e-04   2.2746746e-04  -4.7532907e-05   1.2691226e-03  -1.0890047e-04   4.4553200e-04  -9.5728239e-05   6.9122063e-04
   4.1956289e-04   2.5068625e-04   3.6921931e-04   7.8757707e-04   6.0720864e-05   1.7535538e-04   3.2285866e-04   4.1274232e-04   8.4405410e-04   2.1098941e-04   1.1126207e-04   1.2657657e-04   6.4559834e-05   3.0939895e-04   2.9210447e-04   4.1908902e-04  -1.1448328e-04   1.9834463e-04   5.4160180e-04  -1.8745434e-04  -1.8858694e-04   2.4878036e-04  -6.4282758e-05   1.0330951e-04  -9.5434050e-05   2.5734963e-04  -6.9458853e-04   8.6149994e-05   5.0359283e-04   6.3661177e-04   8.0748252e-04   1.3336964e-04   3.2195300e-04   4.2356548e-04   3.7920260e-04   2.1817385e-04   8.0633722e-04  -1.0067168e-04   5.3574244e-04   4.2214291e-05   6.1688013e-04   2.9931468e-04   4.7657988e-04   5.6417432e-04  -2.3514588e-04   2.2977246e-04  -1.1878558e-04   3.9500682e-04  -4.9211568e-04   5.6949828e-04
   3.8758758e-04   2.2667283e-04   3.4634673e-04   7.9010794e-04   6.2655869e-05   1.7335343e-04   2.8534859e-04   4.5579040e-04  -8.8403358e-05   2.0081981e-04   7.4468568e-05   1.1352365e-04   7.7059616e-05   3.0369047e-04   2.8333787e-04   4.0682481e-04  -1.1290720e-04   4.9530983e-04  -3.0889086e-04  -2.0021260e-04  -2.0012238e-04   2.7255568e-04  -5.8893579e-06   2.6222548e-04   1.3059817e-04   2.0113604e-05  -6.3129509e-04   1.0418994e-04   6.4079190e-04   6.4612069e-04   3.8375895e-04   3.9996428e-04   7.1155670e-04   5.4298126e-04   3.3496547e-04   7.0333882e-04   6.7745271e-04  -1.3344159e-04   5.3102640e-04   2.2955076e-04   6.7981257e-04   5.9689464e-05   4.2642310e-04   1.3056873e-04  -4.6863515e-04  -1.8702939e-04   1.7205059e-05   4.3945541e-04  -8.8118319e-04   8.8182942e-04
   3.6437306e-04   2.0572872e-04   3.2906851e-04   7.5581810e-04   3.2782329e-05   1.4115618e-04   3.5205568e-04   4.6003118e-04  -2.3866790e-04   2.1341415e-04   8.4465850e-05   1.3559146e-04   6.0710416e-05   3.0377498e-04   2.0342351e-04   3.7693937e-04  -1.3955617e-04   3.9645063e-04   2.8666513e-04  -2.0728465e-04  -1.7082231e-04   2.9421860e-04  -4.4308359e-05   7.8541896e-05  -2.4585403e-05   8.2715824e-06  -6.2382105e-04   1.5206670e-04   4.4218564e-04   6.5628311e-04   1.4998272e-04   1.3075078e-04   6.1441731e-04   3.8532281e-04   3.4352008e-04   5.8849397e-05   8.1451982e-04  -1.4908868e-04   3.9206180e-04   1.5210931e-04   3.1139850e-04   1.2611543e-05   4.5331835e-04   4.0424181e-04  -4.7087285e-04   1.7247162e-03  -7.4287775e-05   2.9406609e-04   2.7622874e-03   8.0690737e-04
   3.8470590e-04   2.3660983e-04   3.3706916e-04   7.9077156e-04   5.1595227e-05   1.6912096e-04   3.0866545e-04   4.0040829e-04   7.9831667e-04   2.0525270e-04   7.0892638e-05   1.4055120e-04   6.6568537e-05   2.5909001e-04   2.9509913e-04   3.6149411e-04  -1.2001338e-04   1.6051839e-04   5.2303186e-04  -2.1960487e-04  -1.7891248e-04   2.4321947e-04  -1.2508883e-05   1.4348613e-04  -1.6647056e-05   8.7815446e-05  -6.6325365e-04   2.9914318e-05   4.8439467e-04   6.4435758e-04   2.4484546e-04   1.1386172e-04   6.7004474e-04   4.5950201e-04   3.9984562e-04   7.0609269e-04   8.5327466e-04  -1.7591967e-04   4.9120979e-04   3.8532631e-05   5.5290863e-04   5.5973884e-05   4.2455364e-04   1.4300358e-05   3.5040459e-04   3.3076340e-04  -1.1283062e-04   2.5136120e-04  -2.2375857e-04   1.2385324e-03
   3.5985661e-04   2.2034625e-04   3.4597790e-04   7.5244694e-04   7.5311342e-05   1.9981813e-04   3.0870014e-04   3.8813343e-04  -6.4789166e-04   1.9002947e-04   4.3463246e-05   1.2984274e-04   5.8285128e-05   2.8399428e-04   3.1328842e-04   3.6865065e-04  -1.5016230e-04  -2.0425228e-04  -1.3008516e-03  -2.2516807e-04  -1.8079024e-04   2.6336830e-04   9.5950008e-06   2.7092264e-04   6.6268498e-05   4.4779652e-05  -5.4365105e-04   7.6017823e-05   4.4822574e-04   6.1991223e-04   2.4675508e-04   1.7535240e-04   1.3801126e-03   3.7285782e-04   3.6740577e-04   8.2350348e-04   1.0223493e-03  -1.4957327e-04   3.4808982e-04   3.5326736e-04   2.6233518e-04  -9.8933684e-05   3.9935121e-04  -3.5798796e-05  -6.3613779e-04   6.6188647e-04  -2.4899678e-05   3.5337819e-04  -3.5520774e-04   5.3953734e-04
   4.1944874e-04   2.4285022e-04   3.5723616e-04   7.7179220e-04   6.4237312e-05   1.2555264e-04   3.1759875e-04   3.8817871e-04  -2.6514969e-04   2.1373702e-04   7.9175225e-05   1.2208489e-04   5.2140003e-05   2.5617235e-04   2.3075372e-04   3.5140902e-04  -1.3222281e-04   4.4858732e-04  -2.5899970e-04  -1.9851726e-04  -1.7101550e-04   2.9069872e-04   1.2310373e-05   2.3945935e-04   7.2513118e-05  -6.0917300e-05  -5.4784358e-04   8.7699511e-05   4.9917458e-04   6.1676296e-04   5.8314927e-05   1.2541440e-04   1.0847733e-03   4.5989733e-04   3.8103713e-04   9.6394692e-04   7.3921354e-04  -1.4749663e-04   4.3797362e-04   9.0165471e-05   1.3359370e-04   4.3734859e-04   4.1471305e-04   7.5441712e-05  -3.7740028e-04   2.0770989e-03  -2.2412889e-04   3.9399078e-04   3.9172274e-04   9.5169048e-04
   3.6623521e-04   2.3069017e-04   3.4403327e-04   7.6249562e-04   4.7681187e-05   1.5698289e-04   3.1262729e-04   3.8816404e-04  -8.1234553e-04   2.0557344e-04   7.4029835e-05   8.5565829e-05   7.2182316e-05   2.4185023e-04   4.0330272e-04   3.5903591e-04  -1.5914220e-04   9.6327916e-05  -2.7322688e-04  -2.0963786e-04  -1.7401812e-04   2.4124123e-04  -8.3749357e-05  -4.9322221e-05  -6.2472041e-05   1.8671830e-04  -5.5645593e-04   6.5688568e-05   4.1506940e-04   6.2257261e-04   4.7774077e-04   1.8034199e-04   1.0695104e-03   3.5986173e-04   3.5248164e-04  -5.9025446e-05   8.2405063e-04  -1.4360817e-04   4.7317139e-04   4.9580849e-04   2.6529160e-04   4.6345482e-05   4.2016007e-04   4.1916466e-04  -1.6579089e-04   1.3002050e-04   1.0240753e-04   2.4758250e-04  -1.3616086e-03   6.2801153e-04
   3.5239346e-04   2.0406141e-04   3.3605492e-04   7.4582890e-04   5.1202591e-05   2.1039341e-04   3.2597821e-04   3.7598552e-04  -1.6914931e-04   2.1630769e-04   5.7782680e-05   1.4133236e-04   7.8777623e-05   2.6218616e-04   3.4163715e-04   3.2850401e-04  -1.4136801e-04  -2.1686808e-04   1.1489742e-04  -2.0586056e-04  -1.6156601e-04   2.6011534e-04   2.2254793e-05   1.9638700e-04   1.2001075e-04   3.7962564e-05  -5.8207067e-04   1.3248454e-04   4.7303466e-04   5.9192395e-04   1.6433223e-04   1.7528103e-04   2.6374660e-04   3.3685149e-04   3.8998789e-04   2.3417565e-04   7.3326874e-04  -1.3077979e-04   4.5524823e-04   1.7639357e-04   3.2234754e-04   2.2661484e-04   4.1505409e-04   2.3850016e-04  -5.4836523e-04   6.3282426e-04   2.9851612e-05   3.6899329e-04  -9.4089675e-04   1.0383429e-03
   3.8532488e-04   2.4461490e-04   3.3672852e-04   7.6114282e-04   6.7585454e-05   1.3080396e-04   3.2563347e-04   3.9605401e-04   6.9984642e-04   2.1905784e-04   6.5474029e-05   1.3821192e-04   8.9156252e-05   2.5772952e-04   3.6256461e-04   3.6731255e-04  -1.4014207e-04   2.7059502e-04  -1.7760030e-04  -1.9173555e-04  -1.5952009e-04   2.8618754e-04   1.4679942e-04   9.4691793e-05  -1.1505143e-04   1.4418819e-05  -4.4597665e-04   1.0211982e-04   4.0134054e-04   4.7935333e-04   1.7253291e-04   2.1238935e-04   6.8253197e-04   5.9674698e-04   4.3021669e-04  -2.2690857e-04   7.4126525e-04  -1.2047669e-04   4.7723818e-04   2.1263574e-04   2.6253166e-04  -1.0156077e-05   4.2534777e-04   1.8163682e-04  -5.9533789e-04   1.0589208e-03  -6.6086977e-05   2.6776863e-04  -6.0537638e-04   9.8383578e-04
   3.8488739e-04   2.2085363e-04   3.5640772e-04   7.4283016e-04   8.6145243e-05   1.2208374e-04   3.1465030e-04   3.7383722e-04   7.6245160e-05   2.0427107e-04   4.4792105e-05   9.8292207e-05   7.5932287e-05   2.5585527e-04   3.5916662e-04   3.3667314e-04  -1.7488073e-04  -9.7266035e-05  -9.4777677e-04  -1.9951422e-04  -1.8697584e-04   2.1608239e-04   8.4931271e-05   9.3683579e-05  -9.4369636e-05   3.3935445e-04  -2.8324674e-04   9.3277697e-05   3.2353873e-04   5.0593301e-04   6.9440212e-05   4.8348651e-04   6.0725951e-04   4.2511107e-04   4.0539249e-04   4.6926187e-05   1.0818784e-03  -1.2458162e-04   4.8169709e-04   2.9773684e-04   1.3869691e-04   1.7830380e-04   4.4038755e-04   3.2241541e-04  -7.9814775e-04   1.5492563e-03  -4.2282642e-05   2.2962209e-04  -3.0373085e-05   9.5809158e-04
   4.1267136e-04   2.3339175e-04   3.9646661e-04   7.7252701e-04   3.5769612e-05   1.1719284e-04   3.4436371e-04   3.8082580e-04   8.5067695e-05   2.3562089e-04   8.0198450e-05   1.0277948e-04   8.7900451e-05   2.7927000e-04   3.5901860e-04   3.5561417e-04  -1.4054260e-04   2.1738573e-05   1.5423485e-04  -1.9114163e-04  -1.7469215e-04   2.0858191e-04   2.4250567e-04   3.6590765e-04   6.5196793e-05   2.1008022e-05  -2.9910661e-04   1.2505760e-04   4.4084244e-04   2.5529714e-04  -1.3742140e-04   3.3044323e-04   8.4755401e-04   5.8259751e-04   3.7690232e-04   6.7326080e-05   8.8697020e-04  -9.0488946e-05   4.3285327e-04   2.7225792e-04   1.1677980e-04  -2.0073986e-04   4.4137286e-04  -1.1208477e-04  -7.0349319e-04   7.7062187e-04  -1.0619544e-04   3.8052170e-04  -6.8175941e-05   5.9662340e-04
   3.5483943e-04   2.2604613e-04   3.4090783e-04   7.5069978e-04   6.5161104e-05   1.1651001e-04   3.1671466e-04   3.9774561e-04  -4.2482061e-04   2.2126558e-04   8.3047766e-05   9.6639320e-05   8.8527035e-05   3.5690301e-04   2.3598988e-04   3.1350984e-04  -1.5273066e-04   2.0689626e-04   8.0314145e-04  -1.8943174e-04  -1.6228356e-04   1.9390277e-04  -3.4754841e-05   2.2028320e-04  -5.5782672e-05  -3.1759523e-04  -1.2888754e-04   3.8490482e-05   4.9045612e-04   1.8410562e-04   1.0311398e-04   3.5670391e-04   8.3271909e-04   3.4309438e-04   4.0466580e-04   4.5591572e-04   8.5465837e-04  -1.2012784e-04   5.4773781e-04   2.7139293e-04   4.3063620e-04   1.9195049e-04   4.2711769e-04   2.8274686e-04  -6.6690013e-04   1.6946129e-03  -3.0770735e-04   2.5930532e-04   2.4592904e-03   3.9133144e-04
   3.3350714e-04   1.9790567e-04   3.5925186e-04   7.4671902e-04   5.5725097e-05   1.6771595e-04   3.4269481e-04   3.4576160e-04   5.2745752e-05   2.1423168e-04   5.7009715e-05   1.2572559e-04   7.6318232e-05   3.2052241e-04   2.3978567e-04   3.3455543e-04  -1.5756747e-04   4.3367274e-04  -1.0737326e-03  -1.8557512e-04  -1.5766561e-04   2.2845482e-04   2.0656979e-04   2.4573391e-04   1.0831748e-04  -1.5464224e-04  -1.0327018e-04   1.4432899e-04   4.7177498e-04   2.2906577e-04   1.9445064e-04   3.7871895e-04   2.1751487e-04   3.4471950e-04   4.0576546e-04   3.6850435e-04   9.8765932e-04  -8.2706538e-05   5.6034606e-04   2.5870546e-04   3.1075362e-04   1.2238715e-04   4.1879315e-04   5.3615313e-05  -2.2769438e-05   1.3151141e-03  -2.2384248e-04   2.5584031e-04   8.7118469e-04   8.3788479e-04
   3.2974922e-04   2.2500636e-04   3.9179326e-04   7.8067981e-04   8.4980158e-05   1.3416007e-04   3.1865158e-04   4.7206893e-04  -5.3218839e-05   2.2727327e-04   1.0504902e-04   1.3345956e-04   1.0442983e-04   3.1642595e-04   3.2309126e-04   3.5189770e-04  -1.1398656e-04   3.8578393e-05  -6.1332143e-04  -1.8354233e-04  -1.6391293e-04   2.1537958e-04   4.5014163e-05   2.6226795e-04   1.0335293e-04  -1.1302852e-04  -1.4126269e-04   1.1071156e-04   4.6484446e-04   2.2439928e-04   2.1366298e-04   2.6161227e-04   7.9574983e-04   4.4440810e-04   3.8482403e-04  -4.0711623e-04   8.6431991e-04  -8.3067069e-05   4.2329999e-04   1.8046773e-04   4.8353645e-04   4.4935528e-04   4.6702367e-04  -3.4702962e-04  -9.6865551e-05   1.6675893e-03   6.0039019e-05   3.6221941e-04  -5.9390167e-04   8.2617818e-04
   3.4067756e-04   2.0418987e-04   3.4823053e-04   7.5562147e-04   4.2846219e-05   1.5779026e-04   3.2406137e-04   3.5962017e-04  -1.8200246e-04   2.1880612e-04   6.3786923e-05   1.1631073e-04   9.3975614e-05   2.8405956e-04   2.7226011e-04   3.7747071e-04  -1.4880147e-04   6.1353028e-04  -9.4143697e-04  -1.7568299e-04  -1.8424718e-04   2.4975999e-04  -1.0650145e-04   1.9794883e-04  -5.8444610e-05   7.8197052e-05  -4.9937586e-05   1.2660354e-04   4.2264533e-04   2.4153588e-04   2.3319678e-04   4.0899633e-04   1.1734080e-03   3.3257989e-04   3.9385588e-04   2.7616657e-04   7.8281411e-04  -9.4264193e-05   4.1464064e-04   6.1590126e-04   2.5195646e-04   3.7977858e-05   4.7173671e-04  -1.8421331e-04  -5.0836080e-04  -5.5415492e-04   1.1298908e-04   4.0172285e-04  -9.8356348e-04   7.0071651e-04
   3.5002531e-04   2.2240488e-04   3.7696073e-04   7.6002453e-04   6.3715881e-05   1.3602934e-04   4.0063483e-04   3.6798112e-04   2.2555156e-04   2.4042644e-04   8.4698368e-05   1.3325147e-04   8.5548898e-05   2.9074174e-04   3.2847197e-04   3.9009901e-04  -1.7177603e-04   3.5645947e-04   2.6387372e-04  -1.7330929e-04  -1.7237401e-04   2.4337004e-04   1.0728255e-05   3.0446527e-04   4.1806696e-05   2.2721456e-04  -1.4390264e-04   1.5409368e-04   5.1102985e-04   2.0414022e-04  -1.0531015e-04   4.9004290e-04   4.6497077e-04   5.0115044e-04   3.9416685e-04  -9.5181658e-06   6.9041201e-04  -7.9963444e-05   4.3575861e-04   3.9777206e-04   5.0362706e-04   1.7487111e-04   4.3042254e-04   4.1950130e-05  -2.3391505e-04   1.1920022e-03  -4.9464878e-05   3.5207774e-04  -8.9336850e-04   7.0868630e-04
   3.6101270e-04   2.1293671e-04   3.5273205e-04   7.5220497e-04   4.2184831e-05   1.3720203e-04   2.9614288e-04   4.0569887e-04  -3.5279605e-04   2.2748350e-04   7.1472226e-05   1.0576680e-04   1.2003464e-04   3.2677318e-04   3.1415807e-04   3.8407368e-04  -1.5790720e-04   5.4782099e-04   2.1882517e-04  -1.5129799e-04  -1.7481890e-04   2.6127679e-04   1.9589115e-05   1.6385813e-04   3.5512225e-05   5.7862126e-06  -9.2218957e-05   8.1378217e-05   5.0412340e-04   2.3078013e-04   3.1708338e-04   5.0332252e-04   1.0597293e-03   3.6317811e-04   4.4549402e-04   5.8833702e-04   6.2579778e-04  -8.7624161e-05   4.8928120e-04  -2.5662323e-05   1.7497632e-04  -9.4307703e-05   4.5429601e-04   1.8558979e-04  -4.5837188e-04   8.1848103e-04   9.0207235e-05   2.5949412e-04   5.7217944e-04   7.2634302e-04
   3.3306662e-04   1.9293123e-04   3.6131492e-04   7.3572475e-04   3.3584580e-05   1.3034856e-04   3.6434658e-04   3.6894673e-04   3.7386495e-04   2.0722205e-04   6.7561698e-05   1.1271880e-04   1.1033252e-04   3.0543021e-04   4.0704155e-04   3.7893309e-04  -1.1225158e-04  -3.9874008e-06   1.9397256e-04  -1.7270492e-04  -1.6465494e-04   1.9412189e-04   1.2865939e-05   2.8617206e-04   5.9034683e-05   1.4188988e-04  -1.2610135e-04   2.2396952e-04   4.1019093e-04   2.1188022e-04   1.1988628e-04   4.2692781e-04   9.3906117e-04   4.9742439e-04   3.6305524e-04  -1.8164510e-04   8.4148685e-04  -7.4025673e-05   4.1312058e-04   4.1576102e-04   3.4256787e-05  -8.9193491e-05   4.7679603e-04   3.1146116e-04  -4.0842415e-04   9.8874669e-05   5.6115936e-05   3.3994127e-04   8.1492495e-04   1.3359397e-03
   3.8164525e-04   2.1928457e-04   3.3655000e-04   7.6137338e-04   6.1003379e-05   1.1554707e-04   2.9897789e-04   3.3318688e-04   1.0078101e-03   2.2645615e-04   8.8100889e-05   1.4761920e-04   1.1469942e-04   2.9503444e-04   3.2478065e-04   4.1444416e-04  -1.3012475e-04   7.6396711e-05  -5.1727024e-04  -1.5022216e-04  -1.6301159e-04   2.3602704e-04   1.1323713e-04   1.1688322e-04  -3.5142886e-05   6.9169393e-05  -6.0652521e-05   9.7441043e-05   4.2955353e-04   2.1187574e-04  -3.9889968e-05   1.3639731e-04   6.7732041e-04   3.8003831e-04   3.5483466e-04   4.8996025e-04   8.6367817e-04  -8.3829058e-05   5.0557812e-04   3.1282043e-04   6.6396227e-04   2.6196215e-04   4.4627715e-04   1.4439155e-04  -5.9218006e-04   8.1020524e-04  -1.2878944e-05   2.5503666e-04   8.4580301e-05   1.0707267e-03
   3.3035950e-04   2.0251662e-04   3.6161632e-04   7.3709630e-04   6.9203852e-05   1.8237797e-04   2.7453993e-04   3.7431697e-04   3.9482946e-04   2.2128083e-04   6.1180624e-05   1.3202147e-04   1.0745823e-04   3.0827080e-04   3.1063697e-04   4.3534246e-04  -1.3336939e-04   4.4488697e-04   8.7570181e-05  -1.5851801e-04  -1.8558363e-04   2.2025556e-04   5.4778022e-05   2.2052898e-04   3.7614387e-05   1.3864810e-04  -4.5812179e-05   1.5572312e-04   4.6129077e-04   2.2692501e-04   1.7727286e-04   4.9470976e-04   7.5460592e-04   4.6312402e-04   3.9776295e-04   4.5519194e-04   9.6601015e-04  -8.9776055e-05   4.0385063e-04   9.5296700e-06   4.3237078e-04   1.1968913e-04   4.2778958e-04   6.4009806e-04  -4.8238868e-04   5.5252621e-04  -8.1059607e-06   4.0078754e-04  -5.6328054e-04   7.6446001e-04
   3.4051729e-04   2.1912652e-04   3.4973570e-04   7.5742888e-04   5.3687985e-05   1.4753823e-04   3.1268818e-04   4.1917432e-04   5.0388713e-04   2.4396715e-04   8.4738662e-05   1.7627091e-04   1.3415204e-04   3.3977165e-04   2.8129140e-04   4.2201771e-04  -1.1313258e-04   2.5584668e-04   3.0331273e-04  -1.5589206e-04  -1.6265131e-04   2.9642388e-04  -1.3545570e-05   2.8474757e-04   1.7939661e-04  -7.2731746e-05   2.6964186e-05   2.0903912e-04   4.0273651e-04   2.4222545e-04  -3.2695645e-04   2.5162110e-04   5.4074608e-04   4.7436965e-04   3.9281126e-04   4.1572721e-04   7.7536475e-04  -7.4456642e-05   4.1270533e-04   2.0919798e-04   4.8276625e-04   4.9755730e-05   4.5527407e-04   3.3869338e-04  -5.6528870e-04   7.3455373e-04   6.6626220e-05   3.9549009e-04  -1.0773416e-03   4.9981422e-04
   3.4423673e-04   2.1888393e-04   3.6119408e-04   7.6424831e-04   4.6582598e-05   1.2255860e-04   3.4051450e-04   3.8033334e-04   2.7003896e-04   2.2696683e-04   6.7523462e-05   1.8047279e-04   1.2689638e-04   3.2209916e-04   3.3793875e-04   4.2455760e-04  -1.1953817e-04   2.3746995e-04   1.3916702e-04  -1.7342780e-04  -1.6780457e-04   3.1731967e-04  -1.1172750e-04   1.2969968e-04   3.5054534e-05   1.4761917e-04  -4.8017348e-05   2.4593761e-04   3.7819360e-04   2.5199528e-04   2.0459981e-04   2.1190882e-04   8.0475752e-04   5.8227079e-04   3.8312576e-04   7.2938460e-04   8.2787540e-04  -1.0581052e-04   3.7337656e-04   5.2893785e-05   2.4900233e-04  -1.0379251e-04   4.3719847e-04   3.8969261e-04  -5.5702659e-04   1.1052354e-03   1.5679036e-05   2.4799508e-04  -4.6696080e-04   7.0651667e-04
   3.4910260e-04   2.0382117e-04   3.7840547e-04   7.3408033e-04   6.7066743e-05   1.6289955e-04   2.9501948e-04   3.8610562e-04  -4.8810948e-04   2.1191438e-04   8.8068678e-05   1.1202147e-04   1.3676676e-04   3.1689517e-04   3.9607767e-04   4.3456370e-04  -1.0364752e-04   3.5783640e-04  -5.7593256e-04  -1.5137650e-04  -1.8641070e-04   2.5412184e-04   4.1278898e-05   7.7766133e-05  -2.3970621e-05   4.2180830e-04  -6.3203697e-05   1.0343131e-04   3.4301556e-04   2.1425595e-04   7.0097478e-04   3.1594723e-04   7.0812728e-04   4.6104283e-04   3.9092900e-04  -3.0323447e-04   7.6860347e-04  -9.6565047e-05   4.8803847e-04   4.6593780e-04   5.6790595e-05   1.6640768e-04   4.3697239e-04   8.8529509e-05  -3.7504020e-04   1.5746563e-04  -2.5837557e-04   4.5630315e-04   8.8921166e-04   8.4542332e-04
   3.6054949e-04   2.3106804e-04   3.4194000e-04   7.7519903e-04   6.5265187e-05   1.5719411e-04   2.9169137e-04   3.6803802e-04   1.0634476e-04   2.2953362e-04   9.0852714e-05   1.7682789e-04   1.2584800e-04   3.3710469e-04   2.9499418e-04   4.3615722e-04  -1.2236739e-04  -1.4829793e-04   1.1442296e-04  -1.4684776e-04  -1.7906535e-04   2.6581628e-04   8.5372310e-05   3.0548609e-04   2.2312644e-04   1.6778101e-06  -6.9060567e-05   1.6004927e-04   4.1847836e-04   2.2327073e-04  -6.1363738e-05   2.7110981e-04   2.7842663e-05   4.9768604e-04   4.0918597e-04   4.4496704e-04   9.2269748e-04  -8.9995607e-05   5.2945944e-04   2.6592740e-04   4.5106295e-04   2.7184407e-04   4.4461337e-04  -1.2293857e-05   1.7350301e-04   6.1290676e-04  -2.1225898e-04   4.3525835e-04  -1.3344311e-03   1.1291086e-03
   3.4599155e-04   2.1040728e-04   3.5934127e-04   7.4561330e-04   1.0014876e-04   1.8965828e-04   2.9224661e-04   3.8671523e-04   1.2361349e-03   2.1870458e-04   1.1208303e-04   1.3397688e-04   8.9728157e-05   3.4750532e-04   3.2946229e-04   4.3338715e-04  -1.1103533e-04   5.6208961e-04   9.8939671e-04  -1.3814701e-04  -1.9479915e-04   2.4738605e-04  -4.8434431e-05   3.2085220e-05   4.7776892e-05   1.1208390e-04  -1.5464336e-04   1.1894869e-04   2.9490027e-04   2.0429541e-04   1.8787153e-04   1.0282952e-04   5.3384562e-04   4.0445215e-04   3.9050911e-04  -3.7810116e-04   8.3578582e-04  -1.0646018e-04   4.2555816e-04   4.1652389e-04   5.3396687e-04   8.0496415e-05   4.1097720e-04   2.0770749e-04  -5.4080994e-04   5.0611905e-04  -3.0770836e-05   3.1243943e-04  -1.4586853e-04   1.3682674e-04
   3.2598199e-04   2.1434695e-04   3.7774551e-04   7.3846546e-04   7.1177492e-05   1.6250333e-04   3.2092939e-04   4.6925852e-04  -3.0024109e-06   2.3642951e-04   1.0085353e-04   1.3436691e-04   1.0866520e-04   3.2638852e-04   4.5034694e-04   4.2059866e-04  -9.9587385e-05  -9.6200438e-06   2.0339539e-04  -1.5920478e-04  -1.9419806e-04   3.1626422e-04   5.7982274e-05   3.1572915e-04   2.4627597e-04   2.4150735e-04  -1.0500082e-04   1.7956624e-04   5.7260622e-04   2.2018970e-04   7.0598842e-05   1.6775446e-04   1.1532841e-03   4.3633569e-04   3.9683556e-04   5.1760342e-04   8.6040993e-04  -1.2792401e-04   4.9287488e-04   3.4811773e-04   2.0774410e-04   1.3550950e-06   4.3223446e-04   7.4129936e-04  -2.8134129e-04   1.0793868e-03   6.0700666e-05   3.8459690e-04  -3.6594294e-05   1.2942812e-03
   3.5187425e-04   2.2240262e-04   3.6169437e-04   7.3937600e-04   4.7702670e-05   1.3600271e-04   3.5227212e-04   4.1257360e-04  -4.7779619e-04   2.1694355e-04   1.1152695e-04   1.2912889e-04   1.1790124e-04   3.0764460e-04   2.8015760e-04   3.9671088e-04  -1.0515461e-04  -7.0400972e-07   4.4869314e-04  -1.4923883e-04  -1.9743033e-04   2.8709281e-04   7.6831035e-05   2.4322674e-04   2.0863573e-04   1.4121577e-04  -8.1259270e-05   1.9778864e-04   4.2061924e-04   1.9184733e-04   5.4074341e-04   1.9928833e-04   1.0132631e-03   4.4778481e-04   3.9725367e-04   5.5027456e-04   6.2582776e-04  -1.9300490e-04   4.4408071e-04   2.7337225e-04   3.2134925e-04   1.6878582e-04   4.1916530e-04   1.1875716e-04  -9.7020966e-04   1.5888768e-03   1.1370350e-04   3.9916637e-04  -9.2091987e-06   7.4877613e-04
   3.5774484e-04   2.0351427e-04   3.1339889e-04   7.0873660e-04   7.5092925e-05   1.2755681e-04   2.8225678e-04   4.3355214e-04  -2.4857832e-04   2.1199153e-04   8.5860382e-05   1.3510229e-04   1.3763201e-04   3.3065409e-04   2.7353060e-04   3.9141875e-04  -9.3494484e-05   2.6404548e-05   2.4929885e-05  -1.4700687e-04  -2.1455866e-04   3.2964954e-04  -1.9412521e-07   1.7055600e-04   3.5324945e-05  -1.8065273e-04  -2.3364405e-04   1.7469787e-04   3.9618617e-04   2.1748172e-04  -5.8556994e-04  -3.1304604e-05   8.0360827e-04   3.3754556e-04   3.7467881e-04   6.7605381e-04   9.5006847e-04  -1.8847665e-04   4.3949333e-04   1.0739529e-04   2.4851298e-04   1.5675508e-04   4.1965270e-04   4.8485777e-04  -6.0488138e-04   1.2782303e-03   3.6207675e-05   2.4058962e-04  -2.9959000e-04   6.8055472e-04
   3.8693639e-04   2.2707602e-04   3.3565043e-04   7.3547108e-04   5.9779348e-05   1.2964664e-04   3.2039627e-04   3.6477836e-04  -2.4337969e-04   2.2596480e-04   8.9368747e-05   1.6383160e-04   1.3542851e-04   3.5164805e-04   2.2720704e-04   3.7185400e-04  -8.0662328e-05   3.1486314e-05   6.1733765e-04  -1.6493972e-04  -1.9098019e-04   2.8686450e-04   1.8418119e-05   1.5010743e-04   2.1963428e-04   1.6803434e-04  -7.7669771e-05   1.7246393e-04   4.6427417e-04   2.6164876e-04  -4.8721249e-05   7.8750672e-05   1.3163984e-03   5.0414418e-04   3.2370689e-04   3.6641516e-04   6.6475803e-04  -1.9538731e-04   4.0910972e-04   2.9763525e-05   5.0541013e-04  -8.9073401e-05   4.3336663e-04   1.3959158e-04  -6.5852480e-04   1.7848797e-03   8.4708090e-06   3.4683468e-04  -9.7881362e-04   6.6812790e-04
   3.6185558e-04   2.1677905e-04   3.6382547e-04   7.1137014e-04   5.4975524e-05   1.4541377e-04   3.2572472e-04   3.2570749e-04   5.2687697e-06   2.1274936e-04   9.6888616e-05   1.5762291e-04   1.3408612e-04   3.1106229e-04   3.7149503e-04   3.7981209e-04  -1.0780842e-04   1.2480056e-04  -1.0189919e-03  -1.6291864e-04  -2.0109984e-04   3.3452632e-04  -4.4292396e-05   2.3794646e-04   1.5146643e-04   4.1825481e-04  -1.1902926e-04   1.5844265e-04   2.4764013e-04   2.2126183e-04   1.1324566e-04   2.8439247e-04   1.1439577e-03   5.2324455e-04   3.8706843e-04   3.6456835e-04   6.1937218e-04  -1.8925959e-04   4.4551288e-04   1.4751182e-04   3.1125668e-04   1.4243824e-04   3.9131366e-04   1.9630344e-04  -2.8883910e-04   3.7143307e-04  -5.8611877e-05   3.4550487e-04  -1.3559512e-03   9.7457756e-04
   3.5895780e-04   2.0518940e-04   3.4707092e-04   6.9938344e-04   8.9956542e-05   1.6504635e-04   3.3825685e-04   3.5778366e-04   1.5939407e-04   2.3460473e-04   9.2908645e-05   1.3757846e-04   1.3858892e-04   3.3166650e-04   3.7209786e-04   3.5764609e-04  -1.2902086e-04  -4.5672292e-05   3.6626289e-04  -1.4778000e-04  -1.8744466e-04   2.7365811e-04   1.0658156e-05   2.6810591e-04   1.5512611e-05  -1.3897211e-04  -1.9768998e-04   1.4621954e-04   3.0164790e-04   2.2314677e-04  -7.8204357e-05   7.3395136e-06   5.6098262e-04   4.3477246e-04   4.0069869e-04   3.7931823e-04   7.9545402e-04  -2.0488552e-04   4.2379496e-04   3.4194437e-04   4.3903867e-04   3.0598513e-04   4.1097554e-04   2.2215124e-04  -1.1300383e-03   7.3549536e-04   5.8851361e-05   4.2079081e-04   2.0300872e-03   7.8518293e-04
   3.6154574e-04   2.1863855e-04   3.4175423e-04   7.2717818e-04   7.5714503e-05   1.3181628e-04   2.9417279e-04   3.5136048e-04   9.0058264e-04   2.1671623e-04   8.7034990e-05   1.6427970e-04   1.3544502e-04   3.4350707e-04   4.0487092e-04   3.4911136e-04  -1.0332517e-04  -6.4132524e-05  -4.4462402e-05  -1.4937475e-04  -2.0352044e-04   3.0714725e-04   6.1040308e-05   1.4911800e-04  -1.7887069e-05   2.0277229e-04  -8.3020022e-05   1.8949815e-04   3.7375590e-04   2.4121170e-04  -3.8098334e-04   1.1192087e-04   7.0881523e-04   4.6508896e-04   3.9497364e-04   2.6345276e-04   6.6253182e-04  -2.4035467e-04   4.7621698e-04  -2.3794590e-04   3.3621048e-04   1.7916375e-04   3.6959659e-04   4.2471799e-04  -5.2052934e-04   4.9726007e-04  -1.0187114e-04   3.6611391e-04   2.6352334e-04   1.1830819e-03
   3.3334189e-04   2.0891581e-04   3.4629641e-04   6.9395668e-04   8.0932696e-05   1.5610877e-04   2.4260760e-04   3.3977133e-04  -1.3017646e-04   1.9439598e-04   8.7537526e-05   1.6062069e-04   1.3859097e-04   3.3234039e-04   1.8729045e-04   3.5380310e-04  -1.1521695e-04   7.4931304e-05   6.4878009e-04  -1.4558347e-04  -2.1381438e-04   3.6404742e-04   8.4499588e-05   2.8463185e-04   2.3023218e-05   1.8987368e-04  -1.1326370e-04   1.6134790e-04   2.6588241e-04   2.4245023e-04   5.1621441e-04   2.0464839e-04   4.7945623e-06   4.4420344e-04   3.7793696e-04   1.8347347e-04   7.7196985e-04  -2.5049972e-04   3.3498593e-04   1.9539488e-04   1.4171224e-04  -4.6785808e-05   4.0815293e-04   6.4836722e-04  -2.9224926e-04   5.2578241e-04  -2.2744296e-05   3.5739710e-04  -9.0007624e-04   3.5901842e-04
   4.0362190e-04   2.3564057e-04   3.5265737e-04   7.1504433e-04   7.6060554e-05   1.6206873e-04   3.6865566e-04   3.5314553e-04   6.6620079e-05   2.1215173e-04   1.2671381e-04   1.6601211e-04   1.5905865e-04   3.2128303e-04   2.3203262e-04   3.3126448e-04  -1.0423393e-04  -2.0218029e-04  -8.5821061e-04  -1.3972291e-04  -2.0132569e-04   3.3981781e-04  -8.3489307e-05   2.2038778e-04   2.6501107e-04   1.7612982e-04  -1.3494823e-04   1.7418747e-04   3.6209499e-04   2.5475264e-04   6.3100080e-05   7.5283206e-05   4.3906973e-04   5.4247212e-04   4.0487363e-04   8.1669982e-04   9.0135256e-04  -2.7414644e-04   3.9426945e-04   2.3384282e-04   2.9373873e-04  -2.4964800e-05   3.8808418e-04   2.1532067e-05  -1.0091644e-03   1.9425161e-03  -5.4022057e-05   2.9219541e-04   5.8085809e-04   1.0303741e-03
   3.5826763e-04   2.1877736e-04   3.7669946e-04   7.1192574e-04   7.4067226e-05   1.7600090e-04   3.7273680e-04   4.0596139e-04  -6.0676313e-05   2.0917374e-04   9.6627416e-05   1.6472409e-04   1.5903552e-04   3.3386124e-04   3.2848364e-04   3.5455485e-04  -1.2937568e-04  -5.0887984e-04   6.0070615e-04  -1.5474351e-04  -2.0646887e-04   3.4726394e-04   1.1364363e-04   2.6135132e-04   3.1225180e-04  -1.9959964e-04   9.0440808e-05   1.8939548e-04   2.9875152e-04   2.1531692e-04  -4.6594678e-07   2.3693392e-04   9.3380618e-04   4.5173318e-04   3.9575156e-04   1.6887051e-04   7.8560365e-04  -2.8617374e-04   5.1911542e-04   3.6478366e-04   3.6585334e-04  -9.8078046e-05   3.8627800e-04   2.8424873e-04  -3.1273763e-04   1.0066531e-03   1.1416117e-04   3.2735130e-04  -7.1043434e-04   7.3737919e-04
   3.2622693e-04   2.1691585e-04   3.8129094e-04   6.8104756e-04   6.1090563e-05   1.2472428e-04   3.7884002e-04   4.2467375e-04  -2.0083395e-04   2.2816182e-04   9.1302063e-05   1.5760113e-04   1.5847664e-04   3.3580273e-04   3.9898374e-04   3.2526383e-04  -1.2157387e-04  -1.1692478e-04   1.4458048e-03  -1.2497925e-04  -1.8581518e-04   3.3226554e-04   2.2442693e-04   1.7550710e-04   1.5153488e-05   3.0933424e-07  -1.4386293e-04   1.9493398e-04   2.6427023e-04   2.5521629e-04  -8.9994719e-05  -3.5046185e-05   5.3519401e-04   5.1582447e-04   4.4232776e-04   3.0502526e-04   7.6901860e-04  -2.8291877e-04   5.3434534e-04   2.9608500e-04   1.7557277e-04   7.2438233e-05   3.9596550e-04  -1.9856516e-04  -4.5256104e-04   1.3089307e-03   1.9924071e-04   3.9843578e-04   1.8181025e-04   7.4541417e-04
   3.7856796e-04   2.2902961e-04   3.5675277e-04   7.1150268e-04   9.1501119e-05   1.9378343e-04   3.5035299e-04   3.4543878e-04   3.0156227e-05   2.2936592e-04   1.0765227e-04   1.7702735e-04   1.4609440e-04   3.4086235e-04   2.8194650e-04   3.2784446e-04  -1.1641176e-04  -2.6334659e-04  -4.5330278e-04  -1.1433055e-04  -1.9841995e-04   3.3458014e-04  -2.1916143e-05   1.8065862e-04  -1.7437515e-05  -2.4298497e-05  -3.8060520e-05   1.2429434e-04   2.8190180e-04   2.5584939e-04  -7.1870774e-05  -1.7501730e-05   3.2557745e-04   5.1293167e-04   3.9187761e-04   6.9418171e-04   8.7148609e-04  -2.8623379e-04   3.8493026e-04   2.4145271e-04   1.3813515e-04   1.0258427e-04   3.7131691e-04   2.2575348e-04  -9.9099998e-04   1.2459517e-03  -6.4240092e-05   2.5195177e-04   3.5467625e-04   1.0914294e-03
   3.6119274e-04   2.1509075e-04   3.5746495e-04   6.7337690e-04   7.4761338e-05   1.2520896e-04   3.0863276e-04   3.3860430e-04  -2.1596243e-04   2.1569889e-04   9.8924320e-05   1.6401602e-04   1.5923806e-04   3.3481990e-04   3.6470848e-04   3.2712365e-04  -1.3418913e-04  -1.1758621e-04   5.1609380e-04  -1.5680540e-04  -1.9866557e-04   3.1616783e-04   1.6673017e-04   1.6771482e-04  -7.5142448e-06  -4.7133661e-05  -1.3389853e-04   2.1677418e-04   3.1607939e-04   2.4200859e-04  -2.5366261e-04   3.4796871e-05   5.1231764e-04   3.7075876e-04   4.0002802e-04   1.9620573e-04   8.1025279e-04  -2.7635109e-04   5.0853193e-04   4.3891123e-04   3.3874388e-04   3.8228889e-05   3.9192400e-04  -3.5241668e-04  -3.2729850e-04   8.5552339e-04  -4.6353751e-05   2.1608589e-04  -2.8607906e-03   1.3827391e-03
   3.6333411e-04   2.4489238e-04   3.7284152e-04   6.9495011e-04   6.8040892e-05   1.7901433e-04   3.6611749e-04   3.7512812e-04   3.2310496e-04   2.3554050e-04   9.4021008e-05   1.8809056e-04   1.4322148e-04   3.4440422e-04   2.0598629e-04   3.3998763e-04  -9.5833217e-05  -1.2682856e-04  -1.0242229e-03  -1.3015080e-04  -1.7918243e-04   3.6694095e-04   1.4154098e-04   2.5296674e-04   1.7922824e-04   2.5153390e-04  -1.4192097e-04   1.3403207e-04   2.4025765e-04   2.6532167e-04  -2.1556657e-04   2.3076178e-04   4.9413077e-04   5.6290528e-04   3.9464433e-04   3.6811319e-04   7.9268886e-04  -2.8438578e-04   4.4400687e-04   4.2535252e-05   2.6802762e-04   3.6829282e-04   3.6318434e-04   4.5382671e-04  -3.1193512e-04   1.1320908e-03   2.2879397e-04   2.4279385e-04  -4.1516760e-04   9.4827201e-04
   3.8399824e-04   2.2370208e-04   3.4868691e-04   6.8258308e-04   7.5294316e-05   1.6444441e-04   3.5095372e-04   4.0609896e-04   4.7956084e-05   2.3031069e-04   8.2743660e-05   1.7347799e-04   1.6108496e-04   3.1882402e-04   3.5343863e-04   3.0283912e-04  -1.3406301e-04  -1.3796524e-04   9.1373152e-04  -1.3292978e-04  -1.8662472e-04   3.6304299e-04   2.8746164e-05   1.4563069e-04  -4.8778766e-05   4.6549263e-04   8.7380809e-05   1.9176367e-04   3.0141498e-04   2.4911706e-04  -3.5317338e-04   2.6897425e-04   4.7396732e-04   4.8028806e-04   4.1862176e-04   4.4241711e-04   8.4740930e-04  -2.9809051e-04   4.3626261e-04   1.1030887e-04   3.4923368e-04   1.6651725e-04   3.5865844e-04   4.2258689e-04  -5.4417265e-04   6.0610619e-04  -9.0134796e-05   3.0769448e-04  -8.0768915e-04   1.1010120e-03
   3.5779027e-04   2.2611785e-04   3.4388315e-04   6.5152248e-04   1.0203812e-04   2.1300024e-04   3.4012459e-04   3.6195709e-04  -1.2235180e-03   2.5111774e-04   7.8381359e-05   1.5414579e-04   1.6972679e-04   3.2399572e-04   4.3050348e-04   2.9299597e-04  -1.1403299e-04   1.1258823e-04  -2.5371899e-04  -1.2684235e-04  -1.6011382e-04   3.8539982e-04   1.0232250e-04   1.9571489e-04   3.4620639e-04   4.1270480e-04  -8.6762484e-05   1.7944790e-04   2.7751285e-04   2.4796143e-04   2.8667086e-05   1.4033883e-04   6.0219696e-04   4.3065721e-04   4.4115289e-04   2.5541606e-04   7.3567429e-04  -2.7993016e-04   4.6336037e-04   2.8210005e-04   8.6442044e-05   2.0924681e-04   3.1989536e-04   2.1686964e-04  -1.3758524e-04   1.0710951e-03  -2.0310585e-04   2.3227364e-04  -7.9400948e-04   7.8759936e-04
   4.0447380e-04   2.4451196e-04   3.4647863e-04   6.7012792e-04   6.1166516e-05   1.7294605e-04   2.7182701e-04   3.1993052e-04   5.4569950e-04   2.5668091e-04   9.1457034e-05   1.5912790e-04   1.6049907e-04   3.3621918e-04   2.5235242e-04   3.4744103e-04  -1.0136289e-04  -3.4385355e-04   6.4770214e-04  -1.0970591e-04  -1.6784061e-04   3.2812377e-04   9.5788935e-05   2.2638068e-04   2.6134113e-04  -3.8037702e-05  -2.2888363e-04   2.4698023e-04   2.0525955e-04   2.6836459e-04  -2.9328509e-04   1.7342808e-04   2.4005531e-04   4.0407039e-04   4.1906923e-04   1.5041890e-04   5.7395780e-04  -2.8200855e-04   4.0988307e-04   7.6363824e-05  -2.7322345e-05   3.7971113e-04   3.5641246e-04  -7.9628713e-05  -1.4085200e-04   1.3928094e-04   3.4277204e-05   2.3414531e-04  -1.1095804e-03   7.0311222e-04
   3.4938191e-04   2.2766237e-04   3.4148613e-04   6.4685172e-04   8.2328967e-05   1.8907290e-04   2.8081512e-04   4.2120981e-04   1.5253310e-04   2.4832887e-04   6.6952685e-05   1.6538240e-04   1.3442599e-04   2.8897673e-04   2.3073104e-04   3.0757103e-04  -1.0882714e-04  -3.1435258e-05  -4.9514318e-04  -1.3125618e-04  -1.7531979e-04   3.6125371e-04   1.3219385e-04   1.6399479e-04  -2.4256890e-04  -1.9489264e-04  -5.5337488e-05   2.0994872e-04   3.7417785e-04   2.4824517e-04  -7.0951603e-05   2.4392335e-04   1.0084470e-03   4.8584928e-04   4.0455334e-04   3.3148009e-04   8.6082157e-04  -2.6339185e-04   3.9146323e-04   2.3257569e-04   3.7859374e-04   3.2381428e-04   3.6492376e-04   2.5032251e-04  -6.8342075e-04   1.0013017e-03   5.7933194e-05   3.0689116e-04  -1.5988357e-04   1.2053908e-03
   3.7715770e-04   2.5650032e-04   3.6064474e-04   6.6676299e-04   7.5112090e-05   1.6299813e-04   3.6035303e-04   3.7917774e-04  -4.5313701e-04   2.7357982e-04   9.0377100e-05   1.7392242e-04   1.6210708e-04   3.4419083e-04   2.8164205e-04   3.2503629e-04  -1.0807962e-04  -3.1832320e-04   4.4842990e-04  -1.3203142e-04  -1.5210944e-04   2.6381764e-04   8.1534148e-05   2.2291942e-04   1.7176564e-04  -2.2298948e-06  -5.3810363e-05   1.7204523e-04   2.5965815e-04   2.6027541e-04  -4.6738602e-05   2.9570120e-04   1.0110076e-03   3.8376043e-04   3.6742477e-04   8.7930923e-05   7.9936860e-04  -2.6569507e-04   4.7292665e-04   2.6470036e-04   3.3139753e-05   2.7855698e-04   3.3928483e-04   6.8242103e-04  -4.2055149e-04   7.4128382e-04  -4.0926927e-04   2.2339432e-04  -2.1893904e-03   9.5241499e-04
   3.6798351e-04   2.3921306e-04   3.3916108e-04   6.5465498e-04   7.6408440e-05   1.8935274e-04   3.6652305e-04   3.4675628e-04   4.6608719e-04   2.7157870e-04   1.0697384e-04   1.6842021e-04   1.8989533e-04   3.2776629e-04   1.9863187e-04   3.1531195e-04  -1.0743384e-04  -2.1584937e-04  -6.2508270e-04  -1.2377747e-04  -1.6225924e-04   2.7732519e-04   4.2569616e-05   2.0051989e-04  -1.2214937e-04   1.0965267e-04  -1.6830198e-04   1.8007855e-04   1.2881494e-04   2.1028404e-04   2.4073082e-05   1.4531740e-04   8.3098997e-04   3.9390681e-04   4.3905090e-04   1.7953617e-04   6.9266523e-04  -2.6566128e-04   4.9455138e-04   4.5170271e-04   1.3412157e-04   9.5110125e-05   3.1865761e-04   6.1105617e-05  -2.0333406e-04   1.2541707e-03  -8.3827741e-05   2.6128112e-04   6.4775086e-04   9.4756304e-04
   3.8213818e-04   2.3303716e-04   3.7824511e-04   6.5779925e-04   8.7690969e-05   1.6653401e-04   3.2508912e-04   4.2741775e-04  -2.0481068e-04   2.8609298e-04   8.8678025e-05   1.5998232e-04   1.5541958e-04   3.0117945e-04   2.6051627e-04   3.1912999e-04  -8.5445587e-05  -2.9284164e-04   4.4311050e-04  -1.0342464e-04  -1.3425891e-04   4.3100520e-04  -3.6319620e-05   2.6979792e-04   7.8502326e-06   4.8424921e-04  -1.7478374e-04   2.0979553e-04   1.4104586e-04   2.3989903e-04   5.3323725e-05   1.2490770e-04   8.7864359e-04   5.8676617e-04   3.5341628e-04   7.7220018e-04   8.0988073e-04  -2.3433530e-04   4.2115999e-04   2.0900743e-04  -1.2131168e-06   2.4047196e-05   3.5795281e-04   2.0808098e-05  -1.5794323e-04   7.9241523e-04  -6.9767120e-05   2.5444853e-04  -4.2521974e-04   8.1577635e-04
   3.8576662e-04   2.4882553e-04   3.5099659e-04   6.7260582e-04   9.7273653e-05   1.6360686e-04   3.7641637e-04   2.5390426e-04   3.4363940e-04   2.7888018e-04   1.0017434e-04   1.7599648e-04   1.4629656e-04   3.0647297e-04   2.9136782e-04   3.2119767e-04  -6.5861648e-05  -2.1464974e-04  -4.2283707e-04  -1.2843336e-04  -1.3461546e-04   3.1948692e-04   2.0338401e-05   1.2661895e-04   1.0108730e-04  -6.0790426e-05   7.0985916e-05   2.5262797e-04   3.3727181e-04   2.1331852e-04   9.2138354e-05   6.4552274e-05   5.9131638e-04   5.3822325e-04   4.1437673e-04  -1.8394661e-04   8.2637434e-04  -2.2574599e-04   4.3920221e-04   2.0007932e-04   1.4454784e-04  -1.6793553e-04   3.5939165e-04   4.9649959e-04  -4.2031621e-04   1.0318455e-03   1.2824315e-04   3.4990633e-04  -1.8251421e-03   5.1891990e-04
   3.8852950e-04   2.3108342e-04   3.5067063e-04   6.4254249e-04   8.0793558e-05   2.1691908e-04   4.3498652e-04   3.9934544e-04  -1.0310357e-04   2.6113336e-04   8.5904627e-05   1.6119982e-04   1.5554686e-04   3.2546243e-04   4.3793206e-04   3.2301844e-04  -1.0177105e-04  -3.1219973e-04  -5.5075326e-04  -9.6869524e-05  -1.4302642e-04   2.8687110e-04   8.3566068e-05   1.6076233e-04   8.7752735e-05  -1.5704661e-04   1.2064277e-06   2.1519538e-04   2.1868621e-04   2.5454667e-04   1.0444497e-04   3.3194062e-04   1.0208103e-03   5.8209919e-04   4.1061777e-04   4.5826330e-04   1.0013415e-03  -2.1850434e-04   4.4065915e-04  -3.3191263e-05   1.5177068e-04   1.0567058e-04   3.5454740e-04   2.4608118e-04  -4.0309041e-04   2.9469363e-04  -8.8319815e-05   3.7893333e-04  -9.8652975e-04   5.7029782e-04
   4.2023731e-04   2.6073540e-04   3.5020144e-04   6.7099143e-04   1.0549231e-04   2.1763162e-04   3.6045426e-04   3.4543421e-04   7.1243750e-04   2.8124292e-04   1.1727177e-04   1.9394195e-04   1.4668542e-04   3.4547257e-04   3.1034939e-04   3.4158459e-04  -9.0624279e-05  -1.4133190e-04  -1.6144682e-04  -1.1434597e-04  -1.2559042e-04   3.2928941e-04   1.4233058e-04   2.4079497e-04   2.3815648e-04  -1.2186699e-04  -5.0552364e-05   1.8406460e-04   2.4696212e-04   2.6317622e-04   2.5292850e-04   2.0116084e-04   4.9017608e-04   2.8206635e-04   3.8158399e-04  -1.9707895e-04   7.2783348e-04  -2.1069498e-04   4.3862182e-04   1.8010169e-04  -8.5016973e-06   2.2104732e-04   3.7257574e-04   7.1734289e-04  -7.4650167e-04   1.1082115e-03   1.1410799e-04   2.7093760e-04  -1.6889190e-03   5.8848906e-04
   3.8098614e-04   2.5123192e-04   3.6387923e-04   6.5643212e-04   9.0874193e-05   2.2474753e-04   3.1910217e-04   3.4903488e-04  -1.7126888e-04   2.6823216e-04   1.2157117e-04   1.8453084e-04   1.8490333e-04   3.1658949e-04   3.2284271e-04   3.5137901e-04  -8.4569321e-05  -3.6630582e-04   2.9428350e-04  -1.0246813e-04  -1.4245839e-04   2.8076521e-04   6.2774649e-05   5.4423999e-05   5.6239869e-06   2.0816980e-04  -1.5476531e-04   1.9552925e-04   2.7599445e-04   2.6485132e-04   3.1486168e-05   1.8376652e-04   1.5015546e-03   3.1614423e-04   3.9954108e-04   4.2534858e-04   7.7953888e-04  -1.9923631e-04   3.4154460e-04   1.7579171e-04   4.4844628e-04  -1.8942588e-05   3.5086091e-04   3.4275738e-04  -2.9319630e-04   7.7063922e-04  -8.4275292e-05   4.0496566e-04   4.2664827e-04   8.0285367e-04
   3.7951290e-04   2.3374429e-04   3.5100468e-04   6.4439944e-04   1.0261463e-04   1.5975969e-04   3.4901439e-04   3.9696624e-04   1.8055364e-04   3.0052222e-04   1.1882190e-04   1.8224026e-04   1.6164302e-04   3.3148954e-04   4.1564598e-04   3.6468546e-04  -7.9866171e-05   1.8223452e-04  -1.1115794e-04  -9.3614617e-05  -1.2591091e-04   3.3641540e-04  -1.4620910e-04   9.5554169e-05   7.2848275e-06   2.1335080e-04  -1.0912073e-04   1.9757501e-04   2.8305041e-04   2.4486406e-04  -6.9423462e-05   2.9956602e-04   1.8352436e-04   2.8441497e-04   3.7022636e-04   6.2055880e-04   8.3077577e-04  -1.8147039e-04   4.2163659e-04   2.4002472e-04   2.4203352e-04  -1.4998058e-05   3.8836073e-04   2.8973346e-04  -2.2477737e-04   1.8131987e-03  -2.1287146e-04   3.3661778e-04   1.4724388e-03   8.5113192e-04
   4.0986811e-04   2.5190387e-04   3.8964330e-04   6.8090350e-04   7.6829623e-05   2.1864905e-04   3.3538710e-04   4.0293339e-04  -3.2703931e-04   2.8901079e-04   1.3100868e-04   1.7626882e-04   1.9711212e-04   3.1044657e-04   2.9738908e-04   3.8484510e-04  -9.4822339e-05  -2.4325185e-04  -5.4699270e-04  -8.8087523e-05  -1.2900120e-04   3.0150343e-04  -1.0510215e-04   1.8939409e-04   1.4118088e-04  -2.1886642e-04  -1.3918451e-04   2.0062183e-04   3.6373342e-04   2.4945388e-04   4.4459032e-04   2.3141147e-04   1.6004372e-03   2.8078989e-04   3.9309790e-04   7.2548876e-04   9.3432702e-04  -1.9723698e-04   3.5564470e-04   3.1685241e-04   1.8751499e-04   2.2711697e-04   3.8165448e-04   4.0301483e-04   1.8593376e-04   1.3934847e-03  -1.1346474e-04   3.0972282e-04   6.5896171e-04   1.2594840e-03
   4.0986403e-04   2.3953035e-04   3.3287905e-04   6.3516892e-04   6.1675411e-05   1.7514115e-04   2.8846005e-04   4.4384823e-04  -2.5937933e-04   2.8650239e-04   1.0588019e-04   1.5687771e-04   1.9548464e-04   3.2117491e-04   3.2042828e-04   3.8571103e-04  -8.9228299e-05  -2.0348997e-04   5.4517132e-04  -1.3494281e-04  -1.5339701e-04   3.2091432e-04   2.9312703e-05   1.2221267e-04   1.8051067e-04   6.5132015e-05  -2.1699170e-04   2.0793000e-04   2.0672631e-04   2.3589718e-04   4.6756559e-05   4.0316419e-04   8.7253458e-04   4.1856742e-04   4.0751591e-04  -9.8614670e-05   1.0587544e-03  -1.8604645e-04   4.5441635e-04   4.9099923e-05   3.6505534e-04   1.8666072e-04   3.6448272e-04   6.3910405e-04  -1.9635465e-04   9.0135180e-04   1.0095316e-04   3.8069286e-04   3.0279372e-04   1.3390220e-03
   4.0637999e-04   2.6203916e-04   3.6824803e-04   6.6690706e-04   8.0549784e-05   1.5610385e-04   3.7257050e-04   4.3432167e-04  -7.3198353e-05   3.0129921e-04   1.5127745e-04   1.8422656e-04   1.9595477e-04   3.4255179e-04   3.5305784e-04   4.1077554e-04  -7.5065618e-05  -6.9126028e-05   6.3064473e-04  -8.6235399e-05  -1.1340174e-04   3.0404038e-04   1.4114370e-04   1.7776960e-04  -1.3823129e-05   2.3996219e-04  -7.8523233e-05   1.9274211e-04   3.0983903e-04   2.0738548e-04  -2.1001768e-05   4.7734994e-04   7.1054779e-04   5.7693839e-04   3.4377738e-04   9.8897819e-04   6.7888392e-04  -1.7940090e-04   4.3572229e-04   1.2188278e-04   3.2808664e-04   2.1521808e-04   3.6140386e-04   5.0870818e-04  -3.6334258e-04   6.9839723e-04   1.8574554e-04   3.6671085e-04  -2.4715408e-05   1.5843631e-05
   4.2433280e-04   2.5306584e-04   4.0308313e-04   6.5573526e-04   8.7757173e-05   1.9876305e-04   3.3559950e-04   3.5384056e-04  -2.3507240e-04   2.9407506e-04   1.1796322e-04   1.7988317e-04   1.8262859e-04   3.5969843e-04   4.8482316e-04   4.3064437e-04  -6.3501568e-05  -2.2112577e-04  -6.8430719e-04  -8.0944053e-05  -1.2828199e-04   3.5764597e-04   2.0524196e-04   2.2110131e-04   3.9782761e-05  -2.8010161e-04  -1.1495391e-04   1.8015348e-04   1.9074942e-04   2.5774987e-04   4.0998546e-04   3.0003805e-04   7.8463461e-04   4.7584949e-04   3.9780018e-04  -1.3960774e-04   6.8077660e-04  -1.9010826e-04   3.9847696e-04   3.3379692e-04   4.5879491e-04   1.0452678e-04   3.6675305e-04   4.1172927e-04  -4.1108707e-04   1.5614348e-03  -2.0589818e-04   2.7095448e-04  -2.6703218e-03   1.0572384e-03
   3.9636198e-04   2.3462811e-04   3.6400801e-04   6.5826747e-04   8.6190492e-05   1.6175461e-04   3.5547299e-04   3.9644653e-04   2.4097081e-04   3.0687437e-04   1.2738722e-04   1.8516115e-04   1.9517078e-04   3.3602875e-04   2.9648864e-04   4.4244344e-04  -8.1129350e-05   9.4814335e-05  -2.1434028e-04  -5.3652813e-05  -1.2039053e-04   3.6585500e-04   7.4395735e-05   3.5743014e-05   1.6397415e-04  -6.2089915e-05  -1.2560259e-04   2.2065545e-04   8.9422399e-05   2.5157203e-04   6.5749121e-04   4.1265352e-04   4.5917896e-04   4.8167116e-04   3.9677302e-04   2.4674064e-04   7.8319444e-04  -1.6747559e-04   3.8780345e-04   3.5896490e-04   5.1242555e-04  -3.2069813e-05   4.1455196e-04   1.4817047e-05  -6.6674623e-04   1.9215661e-03   2.2747353e-04   3.6138104e-04   1.8282552e-03   4.4798738e-04
   4.0876903e-04   2.5366349e-04   3.6692634e-04   6.5831095e-04   6.5672335e-05   1.7943610e-04   3.6691283e-04   4.9189362e-04   5.6074199e-04   3.0153751e-04   1.1926258e-04   1.9107851e-04   1.6570483e-04   3.4139160e-04   3.2646171e-04   4.0013503e-04  -6.3949446e-05   3.3729442e-04  -5.3202904e-05  -7.4912299e-05  -1.2405803e-04   3.6180034e-04   2.8341464e-04   1.1203024e-04   3.3865457e-05  -1.6351714e-04  -1.1544130e-04   2.6002570e-04   3.5922008e-04   2.2447390e-04   2.1313445e-04   2.3667615e-04   1.0847989e-03   4.8827066e-04   3.7580272e-04  -2.7750732e-04   6.4414769e-04  -1.8376579e-04   3.8973484e-04   5.0289737e-04   2.6648331e-05   7.9964057e-06   3.9289394e-04  -1.7595354e-04  -5.7006587e-04   3.1666009e-04   1.5719477e-04   3.6604097e-04   1.0016344e-03   7.0229493e-04
   3.7581255e-04   2.3707915e-04   3.7514544e-04   6.7066727e-04   1.0238432e-04   1.6064929e-04   3.3235521e-04   3.7650409e-04   1.5769075e-04   2.9694036e-04   1.1966586e-04   1.7659286e-04   1.9034051e-04   3.0960570e-04   2.8562505e-04   4.3447164e-04  -5.4284254e-05  -2.2195821e-04   9.8551798e-04  -6.4908389e-05  -1.3023034e-04   3.3989977e-04   1.8495630e-04   2.0028313e-04   1.0952783e-04   1.9231653e-05  -2.0906666e-05   2.4359250e-04   3.5859048e-04   2.7316628e-04   3.5349731e-04   2.9949436e-04   9.0721709e-04   3.1265468e-04   4.2283945e-04  -1.1388765e-04   9.8873070e-04  -1.7383635e-04   4.5161083e-04   1.4906189e-04   4.8540760e-04   2.6789229e-04   3.7394982e-04   2.7164957e-04  -3.1693798e-04   1.2352775e-03   8.8740053e-05   3.2355101e-04  -9.3850284e-04   8.0125930e-04
   4.2419057e-04   2.6150190e-04   3.8307931e-04   6.7633879e-04   8.5306005e-05   1.7545417e-04   3.4414823e-04   4.4979327e-04   5.6576228e-04   3.1793668e-04   1.4823757e-04   2.1896831e-04   2.1839146e-04   3.2703724e-04   3.0469423e-04   4.1008578e-04  -7.0301627e-05  -1.2337456e-04   1.4794891e-03  -5.1376239e-05  -1.0360606e-04   3.3959292e-04   1.5571537e-04   2.3841529e-04   2.9272612e-04  -8.8127665e-05   1.6492593e-05   1.8216325e-04   2.0770433e-04   2.5637358e-04   1.2525360e-04   3.3515942e-04   1.0097016e-03   5.1361189e-04   4.0062130e-04   3.2323756e-04   1.0456585e-03  -1.8187046e-04   4.3424458e-04   4.4860677e-05   1.7713297e-04   1.6700564e-04   3.8276493e-04   2.1503540e-04  -1.1669094e-04   1.2061573e-03  -3.9848728e-05   3.6570916e-04  -6.6008960e-04   8.2620425e-04
   4.0288831e-04   2.4933272e-04   3.6585191e-04   6.6578045e-04   7.7031145e-05   2.1223775e-04   3.9064381e-04   3.6142577e-04  -3.7419639e-04   2.9718506e-04   1.3575226e-04   2.0835470e-04   1.8847434e-04   3.6579600e-04   4.5805139e-04   4.3858160e-04  -6.2292856e-05  -1.3625562e-04   4.6759020e-04  -6.3769359e-05  -1.0737108e-04   3.3830135e-04   2.3115530e-04   2.3294995e-05   6.5650893e-05   2.0205008e-04  -1.7285947e-04   2.2751058e-04   2.7078178e-04   2.3157468e-04   4.6777313e-05   1.5166870e-04   1.8659826e-04   3.2903938e-04   3.8018904e-04   7.7529118e-04   7.9365465e-04  -1.8897353e-04   3.6802501e-04   3.3456562e-04   4.3266310e-04  -1.1657663e-04   3.4273101e-04   4.9069855e-05  -4.2495117e-04   8.3122967e-04  -6.6200657e-05   2.4307379e-04  -7.1906456e-04   7.8835146e-04
   4.0824283e-04   2.3784811e-04   3.8328519e-04   6.4650027e-04   8.6382279e-05   1.8562954e-04   3.8449204e-04   4.6689869e-04  -8.9490222e-04   3.2607318e-04   1.5385747e-04   2.1538915e-04   2.0581327e-04   3.6317011e-04   3.8013756e-04   4.2281527e-04  -5.5082415e-05   1.4459745e-04  -1.9038127e-04  -3.1840766e-05  -8.7083485e-05   3.8739326e-04   8.4809952e-05   8.1547856e-05  -4.9350430e-05   2.7206463e-06   1.4164128e-07   1.5728390e-04   1.9047437e-04   2.8047294e-04   3.4247886e-04   3.1670745e-04   2.5795959e-04   3.5973842e-04   3.7154474e-04   4.8358736e-04   7.9277094e-04  -1.8526167e-04   4.5665543e-04   8.8080909e-05   3.0840325e-04   1.9191651e-04   3.6058313e-04   5.5705733e-04  -3.2919858e-04   1.2699997e-03  -6.6650944e-05   3.1451965e-04  -5.5967038e-04   7.7874475e-04
   4.1245666e-04   2.4746859e-04   3.8078957e-04   6.5463735e-04   9.6434720e-05   2.2218141e-04   4.4032425e-04   4.3473952e-04  -1.3102204e-04   3.1401103e-04   1.3453010e-04   2.1969907e-04   1.7140561e-04   3.6801756e-04   3.1703911e-04   4.0034158e-04  -7.3519106e-05   2.6303405e-04  -8.1636157e-04  -2.6183072e-05  -9.0505178e-05   3.8062557e-04   9.5508578e-05   1.1596060e-04   8.8563451e-05   1.8644441e-04   6.9545977e-06   2.7186386e-04   2.4689318e-04   2.6687811e-04  -3.1707801e-05   2.5400190e-04   1.2807527e-03   5.2087364e-04   3.9135199e-04   3.0901478e-04   8.2629634e-04  -1.9712337e-04   4.3372682e-04   3.6799099e-04   1.3873838e-04   1.4084917e-04   3.6090537e-04   1.4536860e-05  -5.5654356e-05   1.1132195e-03   8.6867600e-05   3.1918107e-04  -8.5336267e-04   8.4410189e-04
   4.0678252e-04   2.3823652e-04   3.6675730e-04   6.5719191e-04   9.0942813e-05   1.5639517e-04   3.6533960e-04   4.2235912e-04   1.2447524e-03   3.0107843e-04   1.4429896e-04   2.0378306e-04   2.0812648e-04   3.6610197e-04   4.3272003e-04   4.3126172e-04  -7.5306343e-05   8.0770762e-05   2.6999976e-04  -6.2196792e-05  -1.0947061e-04   4.3027016e-04   4.9596081e-05   1.6320539e-04   2.2822039e-04  -1.5425548e-04  -1.6350506e-04   2.2853828e-04   2.3621629e-04   2.5851835e-04   4.6586583e-04   3.1079358e-04   7.4704515e-04   4.8983685e-04   3.7016789e-04   7.6924247e-04   8.4528700e-04  -1.9407566e-04   4.3505282e-04   3.7951046e-04   5.8889139e-04   1.5469044e-04   3.6148721e-04   1.3453221e-04  -4.4443374e-04   1.1417564e-03  -2.0159806e-04   3.4943793e-04  -1.1181787e-03   5.9683563e-04
   4.0584494e-04   2.5890130e-04   3.9062268e-04   6.6127139e-04   9.9534635e-05   2.1338288e-04   4.4111439e-04   4.7343585e-04   1.1944639e-03   3.2182629e-04   1.4245599e-04   2.1709938e-04   1.9839124e-04   3.5872165e-04   3.5187913e-04   3.9867216e-04  -5.3658649e-05  -1.2796559e-05   2.9994047e-04  -3.9597235e-05  -9.5496580e-05   3.4794395e-04   1.5848916e-04   3.3716051e-04   1.3033852e-04   4.8379731e-04  -5.0161496e-05   2.7519671e-04   2.6081657e-04   2.3942741e-04   2.6372573e-04   1.0194459e-05   1.0929034e-03   4.9364840e-04   3.9288885e-04   6.5691938e-04   7.6003408e-04  -2.1365755e-04   4.3367699e-04   3.7694292e-04   4.1802909e-04   3.2409127e-05   3.5833556e-04   4.0029967e-04  -1.5506342e-04   1.9300308e-03   5.2032381e-05   2.9842748e-04  -1.1916914e-03   5.2013714e-04
   4.0778081e-04   2.5080645e-04   3.8070479e-04   6.6037843e-04   7.8838922e-05   2.3145658e-04   3.9605360e-04   4.1597142e-04   5.5052328e-04   3.1620401e-04   1.4820932e-04   2.1138348e-04   2.1245125e-04   3.6450790e-04   3.5383750e-04   4.0737638e-04  -7.6618693e-05  -1.5365415e-04   6.6106051e-04  -2.3920640e-05  -9.3133043e-05   4.1534836e-04   1.5460906e-04   2.0367463e-04   1.7226693e-04  -9.7660020e-05  -7.0313035e-05   1.9017165e-04   2.9879596e-04   2.7746562e-04   1.5668292e-04   3.5571307e-04   9.0214598e-04   4.3095413e-04   3.7308678e-04   6.9263234e-04   8.3134929e-04  -2.1585685e-04   4.2283928e-04   2.8574766e-04   1.0824455e-04   4.1501797e-04   3.7363177e-04   3.9143572e-04  -4.1042196e-04   4.6372105e-04  -4.1521911e-05   3.5607803e-04  -2.5558640e-04   8.5339445e-04
   4.4365550e-04   2.5907712e-04   3.7859502e-04   6.5682962e-04   1.1975227e-04   1.7601183e-04   3.8194415e-04   4.5583816e-04   1.4165039e-04   3.4233523e-04   1.6080757e-04   2.1705871e-04   2.0797015e-04   3.4932053e-04   3.3137042e-04   3.9712139e-04  -7.7393182e-05   1.5444640e-04   4.9148564e-04  -2.0881251e-05  -7.3203126e-05   3.8607002e-04   1.3856277e-04   2.2676741e-04   3.8596001e-04  -1.2487014e-04  -1.1244319e-04   1.4969897e-04   2.8689508e-04   2.7734696e-04   3.0995341e-04   2.4959887e-04   6.7523756e-04   4.0507503e-04   4.0395124e-04  -3.2518522e-04   9.2912768e-04  -2.0131656e-04   4.6751814e-04   3.9777695e-04   4.0077671e-04  -1.6942683e-04   3.7396344e-04   2.8487082e-04  -7.0394459e-04   7.5635302e-04   3.6762751e-04   2.1699762e-04   1.4371439e-03   8.8892807e-04
   4.2828903e-04   2.5217913e-04   3.7856807e-04   6.6893874e-04   9.7285330e-05   2.4555580e-04   2.5786192e-04   5.2912056e-04  -1.8387477e-04   3.2957600e-04   1.5578025e-04   2.1022724e-04   1.7231199e-04   3.7181671e-04   3.4508869e-04   3.8133614e-04  -4.3389566e-05   1.1758121e-04  -4.2959520e-05  -2.5696987e-05  -9.1022084e-05   3.7831580e-04   6.5136483e-05   1.5600142e-04   9.4794923e-05  -1.0572294e-05   3.4410034e-05   2.1243100e-04   3.6737139e-04   2.9438030e-04   3.8330830e-04   2.2591803e-04   6.2587677e-04   4.1015766e-04   4.1584158e-04   1.8062168e-04   7.2905800e-04  -2.1582119e-04   4.3003252e-04   2.6737200e-05   4.5928417e-04   1.9627773e-04   3.6748563e-04  -2.8574279e-05  -2.6389849e-04   1.4980641e-03   2.2138930e-04   2.9406030e-04  -1.8388632e-04   1.0144622e-03
   4.2559346e-04   2.4335495e-04   4.0519508e-04   6.3626777e-04   1.0608295e-04   2.2515249e-04   3.9578619e-04   4.8966473e-04  -3.8059251e-04   3.3716648e-04   1.3437662e-04   1.8142830e-04   2.0679757e-04   3.5196854e-04   3.3893992e-04   4.1536192e-04  -7.0330861e-05   3.3451091e-05   6.3014287e-04  -2.7540029e-05  -6.9662601e-05   4.0179671e-04   5.6716402e-05   2.0764788e-04   1.3255959e-04   6.2203319e-05  -1.0145168e-05   2.1850229e-04   3.8132939e-04   2.3010370e-04   3.1282433e-04   3.7355410e-04   1.0791474e-03   4.4472906e-04   3.8769667e-04   7.9790252e-04   9.3149859e-04  -2.0630467e-04   4.8017607e-04   2.9349898e-04  -5.0157494e-05   6.0726707e-05   3.7954465e-04   4.0034258e-05  -3.8929546e-04   7.5850601e-04   5.9762602e-05   3.4663428e-04  -2.5990617e-04   1.1751126e-03
   4.4519291e-04   2.6809520e-04   4.0396806e-04   6.9614837e-04   1.2314493e-04   2.0660087e-04   3.5427031e-04   5.0001696e-04   5.2445522e-04   3.4550307e-04   1.5136198e-04   2.3518589e-04   2.0487522e-04   3.4538758e-04   3.7699871e-04   4.0026614e-04  -7.4222073e-05   1.1132604e-05   5.3964596e-04  -3.0215653e-05  -7.6180586e-05   3.8233883e-04  -7.6958531e-05   3.3494085e-04   3.3664113e-04  -1.0413993e-04  -1.2847928e-04   2.2374761e-04   1.8644822e-04   3.2441251e-04   7.6456607e-04   3.7598168e-04   1.0424770e-03   4.9055007e-04   3.8112022e-04   4.6306019e-04   7.9412828e-04  -2.0646109e-04   3.6680218e-04  -9.1292732e-06   3.2462928e-04  -8.4209780e-05   3.7346259e-04   1.1340938e-04  -3.6815094e-04   1.0833134e-03   3.8984919e-04   3.5488841e-04   7.5064629e-05   1.1672754e-03
   4.1410522e-04   2.4354608e-04   3.8844059e-04   6.6364335e-04   8.1134931e-05   1.9988684e-04   3.1243492e-04   3.7446446e-04  -2.8303295e-04   3.3425441e-04   1.7226874e-04   2.0722656e-04   2.0511722e-04   3.8617887e-04   3.7400177e-04   4.1907755e-04  -5.3806543e-05  -4.7626414e-05   8.4992766e-04  -4.1813702e-05  -8.2944011e-05   3.9662438e-04   1.6560504e-04   2.3315469e-04   1.7330769e-04  -3.3038348e-05  -8.8373650e-05   2.7920675e-04   2.4289715e-04   2.6405739e-04   1.4594597e-04   3.7610342e-04   1.2541285e-03   5.1982427e-04   3.5971537e-04   1.2635560e-04   8.3801721e-04  -1.9946578e-04   3.8330280e-04   2.8813272e-04   5.1921507e-04   8.2223029e-05   3.7965961e-04   1.1035690e-04  -7.1329792e-04   1.6441512e-03  -1.8058929e-05   3.6058523e-04   2.1174025e-04   1.1918935e-03
   4.6622884e-04   2.6089285e-04   3.9822931e-04   6.8391179e-04   9.1768430e-05   2.5084533e-04   3.8609881e-04   4.5163516e-04   2.2700331e-04   3.7645534e-04   2.0839187e-04   2.1407878e-04   2.0614790e-04   3.4963855e-04   2.9746300e-04   4.2787366e-04  -5.8646485e-05   7.2868512e-05   5.7482894e-04  -3.0536175e-05  -6.8896537e-05   4.3300935e-04   1.4473456e-05   1.6659549e-04   2.0795864e-04   1.3298193e-05  -1.1157817e-05   3.0498634e-04   1.9816784e-04   2.9033332e-04   1.3782439e-04   3.2138749e-04   6.5623783e-04   5.2459532e-04   3.9778056e-04   6.7684863e-04   9.3223166e-04  -1.9446436e-04   4.2714807e-04   2.9643939e-04   8.0752958e-05  -2.8170887e-05   4.0488323e-04   2.3867215e-04  -1.3940276e-05   6.7166700e-05   7.1199269e-05   4.2590580e-04  -1.8997341e-03   5.9648242e-04
   4.6459225e-04   2.5047551e-04   4.1802769e-04   6.7757396e-04   6.0595310e-05   2.1196411e-04   3.8405479e-04   4.4282322e-04   9.1632153e-04   3.6671030e-04   2.0332746e-04   2.0606421e-04   2.2038129e-04   3.7476575e-04   4.8501778e-04   4.1626254e-04  -4.9105201e-05   5.3734850e-05   2.5722312e-04  -4.0592098e-05  -8.2982166e-05   3.8971420e-04   8.4393243e-05   2.8267966e-04   2.1676901e-04   3.8208588e-04  -2.0301284e-04   2.6206777e-04   3.1781182e-04   2.6507542e-04   1.2087949e-04   3.9079340e-04   2.0757904e-04   5.6254526e-04   4.1071398e-04   1.0089899e-03   6.7373278e-04  -2.1988068e-04   3.6920304e-04   3.2286008e-04   7.0307427e-04   2.0792200e-05   3.9748510e-04   9.0362177e-05  -4.5267862e-04   1.1600724e-03   1.0513474e-04   4.5687103e-04  -1.1138393e-03   8.0259610e-04
   4.3908690e-04   2.2087555e-04   4.1484265e-04   6.6108932e-04   8.5856518e-05   2.2211111e-04   3.9363981e-04   4.6030115e-04  -3.3435543e-04   3.5684035e-04   1.9818898e-04   2.0267349e-04   2.1115819e-04   3.7513787e-04   2.8289825e-04   4.4369334e-04  -5.9194776e-05  -4.7893163e-06  -1.0817679e-04  -7.4898035e-06  -7.0794209e-05   3.8560983e-04   8.2149461e-05   1.8896346e-04   2.0878119e-04   1.4158295e-04  -1.9322974e-06   2.1840273e-04   2.9021886e-04   3.3042554e-04  -9.5704672e-05   4.1913366e-04   6.3402223e-04   5.1339233e-04   3.4626230e-04   4.4606152e-04   6.9463038e-04  -2.0827900e-04   4.4297581e-04   1.0344520e-04   4.0906298e-04   2.1090586e-04   4.1367923e-04   3.5824592e-04  -2.6348355e-04   1.2040313e-03  -1.2967872e-04   3.7590112e-04  -6.1543874e-04   7.4960681e-04
   4.5498856e-04   2.5054079e-04   4.0626354e-04   6.8670575e-04   7.1224029e-05   1.7799421e-04   3.9737415e-04   4.8242655e-04  -2.3237517e-05   3.6760271e-04   1.9284456e-04   2.5267390e-04   2.0101732e-04   3.6842175e-04   3.6387527e-04   4.5537797e-04  -7.5242366e-05   6.0123442e-05   2.4350375e-04  -2.3737915e-05  -8.0965321e-05   3.8058287e-04   1.1805122e-04   1.9707184e-04  -1.2914124e-05   3.7444810e-05  -3.1160100e-05   1.6829472e-04   2.2033877e-04   2.7092817e-04   4.9559076e-06   1.8915215e-04   6.4161257e-04   4.5229433e-04   3.8859859e-04   8.3758956e-04   8.8720571e-04  -2.1550171e-04   4.8297681e-04   4.1086102e-04   1.4180774e-04   4.4667544e-05   3.9803822e-04  -9.3411709e-06  -4.4491066e-04   2.1450282e-03  -4.1877542e-04   3.4469072e-04  -2.2098126e-03   1.1726498e-03
   4.2641602e-04   2.3946674e-04   4.0382388e-04   6.5645901e-04   1.0797501e-04   2.6311088e-04   4.4049032e-04   4.1611638e-04   1.4876950e-04   3.5362033e-04   2.0476295e-04   2.0800706e-04   2.3311970e-04   3.6732724e-04   4.1299791e-04   4.6321188e-04  -5.0748662e-05   2.0848276e-04   1.5407272e-03  -3.9517756e-05  -1.0176424e-04   3.5418739e-04   4.5917961e-05   8.3339728e-05  -4.2376108e-05   6.6187931e-05  -5.3701398e-05   2.8732041e-04   2.3281761e-04   2.6821496e-04  -2.5610183e-05   5.2365178e-04   1.1544618e-03   3.1650308e-04   3.7668907e-04   1.1325298e-05   6.5976864e-04  -2.0651799e-04   5.1078427e-04   2.1468074e-04   4.4949749e-04   5.4033022e-05   4.1000301e-04   7.3356743e-05  -2.2201218e-04   6.3673971e-04   9.6985968e-06   3.4993872e-04  -8.6983276e-04   8.5525279e-04
   4.8399917e-04   2.6701685e-04   4.2036246e-04   7.0105057e-04   9.7561417e-05   1.9339543e-04   4.2926258e-04   4.1185576e-04   1.5886535e-04   3.7628468e-04   2.1904633e-04   2.0408732e-04   2.2010281e-04   3.8451338e-04   5.0475536e-04   4.6257541e-04  -6.5283282e-05  -2.0593284e-04  -4.5405963e-05  -8.8308097e-06  -7.6517579e-05   3.5886152e-04   8.0222540e-05   4.1457321e-04   1.8301341e-04   6.6736728e-05   2.7743688e-05   1.5010074e-04   2.5985160e-04   2.7245306e-04   4.9011823e-04   4.2372406e-04   1.2112982e-03   4.7690695e-04   3.7939410e-04  -3.8687240e-06   8.5135299e-04  -2.1276412e-04   4.3599340e-04   5.4750516e-04   6.1723567e-04   1.9367906e-04   4.0320182e-04   4.5122311e-04  -2.6908427e-04   5.7153107e-04   1.0070070e-05   3.6153829e-04  -1.2186388e-04   6.2418083e-04
   4.6257005e-04   2.5295277e-04   4.4192502e-04   6.9079665e-04   1.1652796e-04   2.6635916e-04   4.7379415e-04   5.2149355e-04   5.3270941e-04   3.5665656e-04   2.0428214e-04   1.8905451e-04   2.2690780e-04   3.9510944e-04   4.4231591e-04   4.9254473e-04  -5.2194056e-05   1.0935165e-04  -5.9208565e-04  -3.0773037e-05  -1.0783789e-04   3.8235326e-04   1.0049340e-04   3.2513871e-04   4.2352647e-05   2.2640785e-05   2.0556834e-06   2.1319000e-04   2.9500609e-04   2.6489905e-04   6.2792469e-04   5.5112567e-04   5.3722732e-04   4.6377291e-04   3.6816535e-04   2.7449537e-04   5.8491150e-04  -2.3217413e-04   4.7757832e-04   2.3164332e-04   4.5821874e-04   3.5110398e-04   3.8470162e-04  -9.7647258e-05  -4.9742707e-04   6.2032009e-04  -7.5073964e-05   3.2491158e-04   1.3491003e-03   8.8431110e-04
   4.5831822e-04   2.3656232e-04   4.0496205e-04   6.6769798e-04   1.3258893e-04   1.9875035e-04   3.7434281e-04   4.8976409e-04  -4.3344007e-05   3.6302098e-04   2.0627161e-04   2.3365831e-04   2.0705075e-04   4.0012345e-04   4.9207278e-04   4.8365482e-04  -7.8730685e-05  -6.9033362e-05   3.0432246e-04  -5.4452971e-06  -8.9406305e-05   3.2833041e-04   2.5895928e-04   7.9902245e-05  -2.5458645e-05   9.1517395e-05   7.5636635e-05   2.2936398e-04   2.3544191e-04   2.6852539e-04   6.7696739e-05   3.9760451e-04   5.4413284e-04   5.5790617e-04   4.0850267e-04  -2.0301350e-05   8.9032133e-04  -2.1470970e-04   4.8553565e-04   6.6560868e-04   1.2735726e-04   2.2585533e-04   4.0632178e-04  -2.1454460e-05  -6.2135172e-05   5.8299856e-04   6.2085579e-05   4.0128562e-04  -7.7918952e-04   7.1167981e-04
   4.7420338e-04   2.5887950e-04   4.0403986e-04   6.9781614e-04   1.2417608e-04   2.5747833e-04   4.6675606e-04   4.6094815e-04   1.0867097e-04   3.6881678e-04   2.1018519e-04   2.4606159e-04   2.3791521e-04   3.5945183e-04   3.6543194e-04   4.8183562e-04  -6.1518454e-05   1.4708395e-04  -8.2673396e-05  -1.8978631e-05  -8.0200662e-05   3.7448271e-04   7.8261965e-06   3.4576331e-04   1.0128024e-05  -1.2727137e-04  -1.2220284e-04   2.0545872e-04   2.0843180e-04   2.1373377e-04  -9.6702097e-05   2.8418098e-04   8.6249446e-04   5.1519374e-04   4.0051111e-04   6.3238485e-04   9.4520248e-04  -2.2162378e-04   5.4594758e-04   4.7527134e-04   9.9936544e-05   2.5769067e-04   4.1464149e-04   2.1689748e-04  -9.0683246e-04   1.3365167e-03   2.4126685e-04   3.3752192e-04   5.8723520e-04   7.8649441e-04
   4.3864036e-04   2.4304783e-04   4.2670468e-04   6.7773508e-04   7.6274489e-05   2.3227578e-04   4.3417569e-04   5.3222664e-04  -4.7559111e-04   3.4937102e-04   2.2758536e-04   2.2815508e-04   2.2828802e-04   3.6508878e-04   3.8231016e-04   4.6040225e-04  -6.7397792e-05   3.6695632e-04   5.3952599e-04  -1.2199487e-05  -1.0160721e-04   3.0296174e-04   1.7353984e-04   1.5890261e-04   1.9743571e-05   1.3265254e-04  -8.5008098e-05   2.4011734e-04   2.6585188e-04   2.3896033e-04   4.6154841e-05   3.9377419e-04   6.3053204e-04   4.8285624e-04   4.2088068e-04   1.1557437e-03   9.2175126e-04  -2.2553171e-04   3.6033240e-04   2.2461799e-04   3.0504502e-04  -4.0395520e-05   3.8865794e-04   4.5121388e-04  -2.5783072e-04   1.6361403e-03   1.3047257e-04   4.9275794e-04   1.9716488e-03   9.0367382e-04
   4.9186638e-04   2.5652320e-04   4.0708587e-04   7.0142059e-04   1.2100149e-04   2.0458575e-04   4.8797182e-04   5.2906945e-04   8.9950871e-04   3.7676340e-04   2.3105706e-04   2.2345064e-04   2.3440430e-04   4.1203620e-04   4.6818666e-04   4.6639983e-04  -6.5797554e-05   2.0255777e-04  -3.5571854e-04  -1.1241643e-06  -8.8241366e-05   3.6607281e-04   5.4200475e-05   1.8041910e-04   1.8307929e-04  -1.2445175e-04  -2.9212415e-05   2.6841927e-04   2.5404777e-04   2.7072671e-04   3.2384702e-04   3.4480094e-04   5.6496041e-04   4.3048916e-04   3.5012842e-04   5.9600041e-04   7.5212604e-04  -2.1524828e-04   4.7143252e-04   1.6134990e-04   3.4195508e-04   9.4135212e-05   4.0673715e-04   2.6383644e-04  -3.0627562e-04   1.5044730e-03  -2.7865713e-04   4.8149773e-04   6.7458500e-04   3.8187223e-04
   4.6813922e-04   2.5080447e-04   4.1122784e-04   7.1581797e-04   9.9376040e-05   2.0270792e-04   3.9598611e-04   4.4325713e-04  -8.5188498e-05   3.6942822e-04   2.2498333e-04   2.4099200e-04   2.4484991e-04   3.7857975e-04   2.6637412e-04   4.6889752e-04  -6.5917149e-05   1.1587248e-06   1.2983370e-03  -1.1794822e-05  -9.9578021e-05   3.5551091e-04   3.1810519e-05   3.1051229e-04   9.2906943e-05   2.0579109e-04  -9.5068099e-05   1.8824021e-04   1.3426540e-04   2.6775029e-04   1.5943273e-04   4.4641725e-04   1.7810322e-03   5.8261096e-04   3.4150496e-04  -4.4645695e-04   9.5724210e-04  -2.2760581e-04   4.8424039e-04   5.2267633e-04   2.0784215e-04   1.4666851e-04   3.8327172e-04   1.9873801e-04  -6.4141251e-04   9.9688931e-04  -1.4370275e-04   3.4965487e-04  -1.0250675e-03   7.0796441e-04
   4.0957070e-04   2.3456001e-04   4.3999025e-04   6.8471418e-04   1.0029723e-04   2.6509352e-04   3.6498590e-04   5.1046110e-04   1.2031974e-03   3.5494339e-04   2.1865353e-04   2.3794855e-04   2.1911589e-04   3.6774634e-04   1.7851565e-04   4.5330136e-04  -5.8974107e-05   9.1376467e-05   4.6543527e-04  -7.1229210e-06  -9.6082069e-05   3.6960799e-04   2.0940859e-05   3.9066191e-04  -9.1548987e-05  -1.2333982e-05  -1.2621804e-04   1.4547298e-04   1.9683632e-04   2.7305086e-04   8.7604167e-05   4.0992937e-04   7.8276743e-04   4.3320231e-04   4.0926124e-04   5.8910716e-04   6.1170250e-04  -2.2007727e-04   4.4007701e-04   2.9114622e-04   6.4807455e-04   1.0321435e-04   3.8718095e-04   1.8588983e-04  -3.9171756e-04   1.1284354e-03   1.4263907e-05   3.0015304e-04  -8.6623483e-04   5.2871136e-04
   4.7632892e-04   2.6493773e-04   4.4136547e-04   7.1422721e-04   1.2093572e-04   2.2901382e-04   4.5355302e-04   5.0187774e-04  -7.5968844e-04   3.7594838e-04   2.3213848e-04   2.0825356e-04   2.3458958e-04   3.5066175e-04   2.7337010e-04   4.4558605e-04  -6.9680136e-05  -3.5045954e-04   6.8882550e-04   7.8106232e-06  -7.8280391e-05   4.4303766e-04   1.3636201e-04   3.3065808e-04   9.1003138e-05   9.9823032e-05   1.5184411e-05   2.9452494e-04   2.8741636e-04   2.4065659e-04   1.9011284e-04   3.7511566e-04   1.0411807e-03   2.8659482e-04   4.0315650e-04   5.4661126e-04   8.9023070e-04  -2.1677637e-04   4.1049198e-04   6.0132972e-04   5.3895876e-04   1.4272503e-06   3.9372520e-04   3.9295925e-04  -6.8091811e-04   1.2206096e-03   2.4566051e-04   3.3621222e-04  -3.1975558e-04   7.3496683e-04
   4.7820038e-04   2.5153242e-04   4.0242341e-04   6.9620204e-04   1.2581170e-04   2.8577671e-04   4.3379245e-04   5.5615779e-04   9.3505398e-05   3.6578075e-04   2.3282782e-04   2.3620257e-04   2.4479404e-04   3.3591766e-04   3.7968956e-04   4.4886567e-04  -6.7380744e-05   2.7917364e-05   4.9187901e-04  -1.2857220e-05  -8.3428022e-05   3.6194510e-04   5.4370863e-05   1.8467513e-04  -1.4195919e-04   3.1042498e-04  -2.9535177e-05   1.5452056e-04   2.0849769e-04   2.4658337e-04   1.8219807e-04   2.6791150e-04   2.2469090e-04   2.8059032e-04   3.9332538e-04   1.8789357e-04   9.7032177e-04  -2.3320063e-04   3.9409980e-04   2.6557196e-04   2.3603822e-04   1.6343202e-04   3.8690228e-04  -2.1500561e-04  -7.1211430e-06   1.6151624e-03   6.7995963e-05   2.8928672e-04  -9.5013983e-04   1.1298488e-03
   4.2355538e-04   2.2979171e-04   4.3458038e-04   7.0040132e-04   1.0342946e-04   1.9789189e-04   4.2351504e-04   5.3042435e-04   5.3566729e-04   3.9591794e-04   1.9348135e-04   2.5087054e-04   2.5022466e-04   3.1682668e-04   3.6768519e-04   4.3379393e-04  -7.2175404e-05   1.9211342e-04   7.2214602e-06  -1.3981775e-06  -6.5614782e-05   4.0786859e-04   1.3678345e-04   2.0710351e-04  -1.2428510e-04   5.4987129e-05  -7.6146243e-05   2.4511825e-04   3.0759574e-04   2.3363317e-04   7.9318363e-04   3.4609353e-04   1.1238642e-03   3.4040143e-04   3.9098327e-04  -7.9389647e-05   6.8718236e-04  -2.1150503e-04   5.0187204e-04   7.8544574e-04   4.6026040e-04   2.1982356e-04   3.5637736e-04   3.4737930e-04  -3.7626692e-04   4.6961996e-04  -4.1124292e-04   2.7072398e-04  -1.1661468e-03   1.3489890e-03
   4.3753232e-04   2.5484175e-04   4.1606504e-04   7.1375153e-04   9.6503092e-05   2.1494727e-04   3.8125284e-04   4.7159559e-04   6.3201255e-04   3.8896775e-04   2.3481464e-04   2.5054114e-04   2.2927993e-04   3.4510728e-04   3.3094673e-04   4.2187775e-04  -7.4382384e-05   4.6718709e-05   1.8859099e-04  -1.0564196e-05  -6.9240952e-05   3.8453346e-04   1.3372587e-04   2.1101431e-04   3.5137869e-06   1.2434597e-04  -5.3360076e-05   2.0293694e-04   2.1068046e-04   2.6725754e-04   2.7826993e-04   5.0997490e-04   7.9502515e-04   6.6157215e-04   3.7708817e-04   9.4436819e-04   8.7827764e-04  -2.2018403e-04   4.3390287e-04   6.3004925e-05   4.5206348e-04  -3.2932058e-04   3.6136311e-04   4.0523963e-05  -1.0417452e-05   1.2308677e-03  -7.5090094e-05   2.4973543e-04  -7.6224474e-04   1.1042625e-03
   4.6909484e-04   2.4340978e-04   4.0116595e-04   6.7672535e-04   1.0364521e-04   2.0696214e-04   4.3109088e-04   4.4074794e-04   2.0552479e-04   3.7843437e-04   2.1082390e-04   2.1822624e-04   2.4668462e-04   3.1310192e-04   3.9004153e-04   3.9277377e-04  -7.7451325e-05   1.9013233e-04  -2.5843250e-04  -1.7383782e-05  -7.7254634e-05   3.3509778e-04   1.3424404e-04   6.4767810e-05   6.8139016e-06  -4.5621156e-05  -1.1846672e-04   3.3416474e-04   2.2709349e-04   2.4123298e-04  -2.5897611e-05   4.9462222e-04   9.1344636e-04   4.2879971e-04   3.3817344e-04   3.7700838e-06   8.3750678e-04  -2.2855868e-04   4.2296728e-04   2.0267928e-04   3.4923875e-04   2.1039406e-04   3.2236837e-04  -9.8584933e-05  -4.1977846e-04   6.7868544e-04  -1.6273528e-04   3.7176046e-04  -9.3751674e-05   1.1023193e-03
   4.5683607e-04   2.7247419e-04   4.2288788e-04   7.2196691e-04   1.1907385e-04   2.4915984e-04   4.8834702e-04   4.9120618e-04  -4.4408184e-04   3.9914524e-04   2.2225206e-04   2.4371031e-04   2.4470701e-04   3.4612548e-04   3.9702214e-04   4.3452522e-04  -7.4161377e-05   1.8733297e-04   8.5460168e-04  -9.9470799e-06  -5.3904387e-05   3.8336302e-04   3.8466087e-06   1.5805480e-04  -1.8161643e-05   1.3369908e-04   1.0154051e-06   1.8140348e-04   2.3740111e-04   2.8067219e-04   6.1461539e-04   2.7608534e-04   1.3317651e-03   4.1596350e-04   3.6911201e-04   1.2626928e-04   7.7775837e-04  -2.3116308e-04   4.6061605e-04   1.1369319e-04   3.0831379e-04   2.3202547e-04   3.4018559e-04  -3.9854820e-04  -1.3552085e-04   1.6400892e-03  -2.0653187e-04   2.7271209e-04  -5.9106323e-04   8.7553478e-04
   4.1545543e-04   2.5862484e-04   4.2669222e-04   7.0790551e-04   1.0747609e-04   2.4549506e-04   4.5399758e-04   4.8318572e-04  -9.1611157e-04   3.8575238e-04   2.1891731e-04   2.4012552e-04   2.5463043e-04   2.6715518e-04   4.3368616e-04   3.9297182e-04  -8.0807273e-05   1.5413345e-04  -2.0383799e-04  -1.3641954e-06  -6.1285195e-05   3.5773797e-04   8.7333792e-05   2.4926043e-04   8.8706314e-05   5.3584798e-05  -1.0251826e-04   1.6612047e-04   1.8182748e-04   2.5806655e-04   4.4084605e-04   3.1222071e-04   1.8360588e-04   2.3915694e-04   4.1422501e-04  -5.0730992e-04   9.4175449e-04  -2.3914152e-04   4.4856541e-04   1.2199293e-04   4.4158142e-04  -9.4427574e-05   3.0257262e-04   1.3239421e-04  -5.0303130e-04   1.4609341e-03   1.1973934e-04   3.0824583e-04  -1.1348021e-05   6.9829379e-04
   4.3039233e-04   2.4532463e-04   4.0620164e-04   6.9865742e-04   1.1501258e-04   2.6005256e-04   3.8997180e-04   4.4270320e-04   4.6525995e-04   4.0781390e-04   2.2195283e-04   2.3829831e-04   2.4570798e-04   2.8483249e-04   3.1061744e-04   3.9700416e-04  -7.4724092e-05   2.6778123e-04   1.2108272e-04   5.4774127e-06  -4.8432303e-05   4.1439006e-04   2.1495814e-04   2.6749319e-04  -4.6098608e-05  -7.3725903e-05  -8.1522056e-05   2.8678720e-04   2.1378258e-04   2.6497661e-04  -9.9235454e-05   2.8431971e-04   5.3722772e-04   4.5506711e-04   4.1102030e-04   4.9593032e-04   7.9710584e-04  -2.2560138e-04   4.9717707e-04   3.2969011e-04   4.1430190e-04   2.2732894e-07   3.1780818e-04   2.7547122e-04  -8.8367808e-05   1.7596905e-03  -3.5441201e-04   3.4606864e-04  -6.7471631e-04   7.5077673e-04
   4.8770107e-04   2.7753669e-04   4.1717096e-04   7.0724211e-04   1.2380164e-04   2.5608152e-04   4.1957214e-04   4.7382884e-04   1.0424206e-03   4.1125689e-04   2.3398036e-04   2.4128372e-04   2.4808064e-04   3.2763163e-04   2.5592229e-04   4.0613316e-04  -6.6513254e-05  -2.2735776e-05   4.5204279e-04   8.4178819e-06  -4.8762169e-05   3.8452505e-04   1.2443344e-04   1.5529148e-04  -4.2061791e-05   2.6522388e-04  -1.6197664e-04   2.4111621e-04   2.5798145e-04   2.5207008e-04   3.7233910e-04   1.5004972e-04   6.6646916e-04   3.9738417e-04   4.0307365e-04   1.7473521e-04   7.4763421e-04  -2.4008490e-04   4.8155934e-04   1.0916672e-04   1.6124510e-04   1.9735289e-04   3.5616197e-04   9.5673247e-05  -7.1458751e-04   9.8844699e-04  -1.3522492e-04   3.7589393e-04   1.8264645e-05   6.7088002e-04
   4.6329084e-04   2.5541481e-04   4.1527863e-04   6.9446646e-04   1.2434882e-04   2.1399604e-04   3.3253379e-04   4.4936957e-04   1.3400284e-03   4.0885975e-04   2.1822751e-04   2.5393115e-04   2.2062183e-04   3.4199608e-04   3.3147365e-04   4.0099476e-04  -7.1685674e-05   5.2676664e-04  -2.2870059e-04  -7.5414164e-06  -3.4352055e-05   3.3759035e-04   9.9427125e-05   1.8226499e-04  -5.3573690e-06   8.6481974e-05  -1.7501344e-04   1.5568039e-04   2.6133316e-04   2.2411742e-04   6.8917271e-04   1.9355591e-04   1.0409639e-03   4.0760904e-04   4.2304513e-04   1.7647121e-04   9.0887735e-04  -1.9172773e-04   4.5415241e-04   5.8923144e-04  -3.6144163e-05  -1.5829819e-04   3.1568442e-04   1.3803612e-04  -2.3474838e-04   1.2765608e-03   4.3793661e-05   2.9586034e-04   6.9070916e-04   7.8821095e-04
   4.7037395e-04   2.7304568e-04   4.4895092e-04   7.1094558e-04   1.4878158e-04   2.3462657e-04   4.1531029e-04   3.8334320e-04   2.0948144e-05   4.3842866e-04   2.7133196e-04   2.4233553e-04   2.2724850e-04   2.7841763e-04   3.1331377e-04   3.7292906e-04  -6.0278377e-05  -2.1254607e-04  -1.8148188e-04   4.0805331e-05  -1.6374786e-05   4.0984890e-04   2.4839456e-04   1.6243890e-04  -5.8157315e-05  -1.0284007e-04  -3.1868705e-05   1.8702977e-04   2.6519367e-04   2.8518576e-04   1.2730624e-04   4.3370714e-04   9.2952815e-04   5.7264295e-04   3.7330817e-04   4.1068307e-04   8.5510337e-04  -1.4672744e-04   5.1709323e-04   3.4595886e-04   3.6902018e-04   3.0881746e-04   3.2814391e-04   1.7694628e-04   1.6066052e-04   1.1789635e-03  -3.8033912e-05   3.4026746e-04   5.0777139e-04   1.1080648e-03
   4.6069091e-04   2.5445747e-04   4.4711630e-04   7.0163084e-04   1.2322252e-04   2.3870668e-04   3.9120507e-04   3.6460639e-04   1.7005169e-03   4.3765374e-04   2.3485802e-04   2.3179514e-04   2.6906093e-04   2.9294219e-04   2.2626632e-04   3.7839002e-04  -6.4157757e-05   1.2068774e-04   1.8090681e-05   1.6676158e-05  -4.7649323e-06   4.1076602e-04   1.5205439e-05   2.3468031e-04   1.8162554e-04  -5.0341805e-05  -1.1833400e-04   1.6959482e-04   1.9899338e-04   2.4043630e-04   1.5378007e-05   5.9718476e-04   7.7295821e-04   1.8405932e-04   3.7649149e-04   7.0117158e-04   9.5619226e-04  -1.7621442e-04   5.4468878e-04   1.4333485e-04   1.1207382e-04   3.0341963e-04   3.1030970e-04  -1.0479696e-04  -7.8991427e-05   8.0799806e-04  -1.6438644e-04   3.2756172e-04  -3.1079390e-04   7.5043639e-04
   3.9585575e-04   2.3552219e-04   4.5085599e-04   6.5896625e-04   9.8696699e-05   2.3383535e-04   3.6697596e-04   4.1567272e-04   1.2869212e-03   4.4785353e-04   2.3131556e-04   2.2259173e-04   2.3533881e-04   2.8607200e-04   2.3582159e-04   4.0370610e-04  -7.5150310e-05   1.0289695e-04   3.1755998e-04   8.4980420e-06  -5.6741678e-06   4.4777995e-04   9.8812387e-05   2.0346706e-04   1.0726511e-04  -2.4899457e-05  -2.3367022e-05   2.2547068e-04   2.3676455e-04   2.2607044e-04   6.8117230e-04   3.3173154e-04   1.5664202e-03   5.5708369e-04   3.9421237e-04   2.1019630e-04   6.2272500e-04  -2.0852470e-04   3.9462670e-04   2.1272511e-04   1.3954712e-04  -4.4949429e-06   3.1359200e-04   1.9698050e-04  -5.9111242e-04   1.6290547e-03  -3.8779204e-04   2.2782186e-04   1.3965719e-04   7.5079326e-04
   4.5719903e-04   2.5689811e-04   4.0882552e-04   6.9159444e-04   9.6807205e-05   2.4747159e-04   4.4887952e-04   4.0445925e-04   3.7548295e-04   4.4773956e-04   2.5921091e-04   2.4896412e-04   2.5859801e-04   3.0951618e-04   3.3765985e-04   3.9348897e-04  -6.8302666e-05   1.0693069e-04  -2.2388676e-04   3.2694479e-05  -1.4174913e-05   3.4009581e-04   2.0246799e-04   1.1161558e-04   2.9863248e-05   5.2211646e-05  -6.1366183e-05   1.9096110e-04   1.7957756e-04   2.3206649e-04   2.4204011e-04   2.0550037e-04   4.7452634e-04   3.4105039e-04   3.9608678e-04   4.4903209e-04   8.1029115e-04  -2.1860479e-04   4.9079565e-04   1.0101515e-04   9.3768853e-05   8.0377649e-06   3.2160230e-04  -5.4647062e-05  -4.5113690e-04   1.5204963e-03  -2.1596202e-04   2.7645435e-04   6.1058026e-04   8.3087618e-04
   4.5757266e-04   2.5277690e-04   4.2663654e-04   6.7859708e-04   1.0176546e-04   2.4665255e-04   4.6055552e-04   4.1067341e-04  -1.9506407e-04   4.3862851e-04   2.2177503e-04   2.5152898e-04   2.7645050e-04   2.9133883e-04   4.3651270e-04   4.1462187e-04  -6.4730390e-05  -1.0615818e-04   6.5307633e-04   4.0358271e-05  -2.1744565e-05   3.3591472e-04   5.1173374e-05   1.3194047e-04   4.0561074e-05   1.4635976e-04  -3.1588268e-05   1.6083813e-04   2.6370230e-04   2.7532110e-04  -8.4750864e-05   3.1474020e-04   8.6826104e-04   2.7582771e-04   4.2631419e-04   1.4462879e-04   1.0422715e-03  -2.2543996e-04   3.7783143e-04   1.1781980e-04   3.1769471e-04   2.7913084e-05   3.4516811e-04   3.1625418e-04  -4.2155373e-04   1.1928742e-03  -1.5809016e-04   2.9027404e-04   3.1793554e-04   8.4246945e-04
   5.0355872e-04   2.8008863e-04   4.5317237e-04   7.2340900e-04   1.1535553e-04   1.7222391e-04   3.4398734e-04   4.1875930e-04   4.5045770e-05   4.5250586e-04   2.3753224e-04   2.4230464e-04   2.3478894e-04   3.1436278e-04   1.8598346e-04   4.0736029e-04  -5.5189943e-05  -2.5728752e-04   9.1194169e-04   5.8810510e-05   1.6698103e-06   4.1157304e-04   1.5419260e-04   9.8030898e-05   1.7995168e-05  -7.0896953e-05  -1.1915558e-04   1.8847964e-04   2.1545032e-04   2.5868768e-04   2.0910104e-04   5.2410446e-04   8.1898953e-04   4.7502926e-04   3.5671829e-04  -2.6797462e-04   8.5703738e-04  -2.3014544e-04   4.5436138e-04   1.7343154e-04   3.6180878e-04   1.1942055e-04   3.4986748e-04   1.1763267e-04   2.3122907e-04   2.0131706e-03  -1.3395547e-04   3.7014351e-04   2.1999828e-04   6.0207909e-04
   4.3847473e-04   2.6365332e-04   4.5141639e-04   7.0891564e-04   1.0714970e-04   2.7299800e-04   4.2965810e-04   4.5739664e-04   2.0446703e-03   4.5499724e-04   2.4301166e-04   2.3691215e-04   2.8574636e-04   3.2220533e-04   3.5767563e-04   4.1253952e-04  -1.5804470e-05  -5.8941576e-05   8.4593421e-04   5.5090615e-05   1.2862826e-05   4.3984159e-04   5.2619478e-05   2.4611494e-04   1.7508124e-04  -9.4065017e-06  -1.2127941e-04   1.6853768e-04   3.3125211e-04   2.4030147e-04   1.4820142e-04   4.7506791e-04   5.3444359e-04   7.6673453e-04   4.3255338e-04   6.9279823e-04   1.0243151e-03  -2.0823962e-04   4.3926819e-04   4.2330581e-04   7.8927563e-04   1.1937004e-04   3.2730863e-04   1.3465420e-04  -5.2021584e-04   4.6721284e-04   1.8357423e-05   3.1497117e-04  -1.2262126e-03   1.0356151e-03
   4.7762913e-04   2.5742050e-04   4.8808049e-04   7.0251385e-04   1.2650285e-04   2.4200218e-04   3.6413583e-04   4.4355486e-04  -1.0912157e-04   4.8354766e-04   2.5389320e-04   2.4778649e-04   2.6375020e-04   3.0642695e-04   3.9724418e-04   4.0452226e-04  -3.6793990e-05   3.0054242e-04   4.4077082e-04   6.6660104e-05   6.3496700e-05   4.2261719e-04   1.7909387e-04   2.5558824e-04   2.8207799e-04  -8.3511084e-05  -6.5326225e-05   1.6973795e-04   2.6610954e-04   2.4427869e-04   6.6185626e-04   6.8431854e-04   4.6213140e-04   4.1306726e-04   3.6770827e-04   6.4996263e-04   1.1173465e-03  -8.7649489e-05   4.5179774e-04   3.5235006e-04  -2.5602778e-06  -1.0980217e-04   3.3774113e-04   4.5259549e-05  -3.3684247e-04   1.0045748e-03  -9.9680685e-05   2.5476352e-04   1.0090893e-03   7.4263150e-04
   4.5644186e-04   2.5840630e-04   4.5587201e-04   6.9517118e-04   1.0978479e-04   1.9061691e-04   4.5364106e-04   3.8789288e-04  -2.9352470e-04   4.9035705e-04   2.3860892e-04   2.3613627e-04   2.6767424e-04   2.8464472e-04   3.3778985e-04   4.2119366e-04  -3.2926437e-05   2.4813198e-04   5.7065109e-04   4.1295865e-05   6.0616254e-05   3.9295256e-04   1.9146265e-04   2.5684905e-04   2.9760855e-05   2.0439778e-05  -1.2099701e-04   2.3684006e-04   3.5200230e-04   2.4504081e-04   8.2977477e-04   6.6020474e-04   1.6942992e-03   4.4165616e-04   3.7586637e-04   6.8471505e-04   7.8007224e-04  -9.9084718e-05   4.6574490e-04   3.9594641e-05   2.1156197e-04   1.8882533e-04   3.2440465e-04   2.4418067e-04  -6.3437605e-05   1.2803941e-03   1.8847489e-04   2.0971739e-04   1.6646462e-03   4.7020300e-04
   4.5600333e-04   2.3741831e-04   4.3905538e-04   6.7302078e-04   1.0717283e-04   2.2577966e-04   4.1064026e-04   4.5730404e-04   2.1702354e-04   4.7192696e-04   2.3824017e-04   2.0938509e-04   2.3338983e-04   2.7596799e-04   4.2866601e-04   4.5045235e-04  -4.3402746e-05   3.1122912e-04   1.4041245e-03   8.8775145e-05   7.2529401e-05   3.9586148e-04   4.7000899e-06   2.5451908e-04   1.8029573e-04   1.6931628e-04  -9.6946572e-08   2.2143411e-04   3.2146205e-04   2.4713352e-04   5.1673251e-04   5.8425037e-04   1.7823187e-03   3.5949156e-04   3.6946952e-04   9.2005543e-04   6.5789651e-04  -9.0941081e-05   3.5853664e-04   1.6199132e-04   2.2583359e-04   1.4640043e-04   3.2866051e-04   1.5305016e-04  -1.8152148e-04   9.9253200e-04  -1.7061312e-04   3.7192291e-04  -6.2647174e-05   6.8600848e-04
   4.9305335e-04   2.5687492e-04   4.7708626e-04   7.1252708e-04   9.5257543e-05   2.3281244e-04   4.4814224e-04   4.1655955e-04   7.4424804e-04   4.9161172e-04   2.5078186e-04   2.4519087e-04   2.7042176e-04   2.9804421e-04   2.3162605e-04   4.4521116e-04  -6.1275518e-05   4.8818273e-04   4.3217784e-05   7.7218923e-05   8.3723498e-05   3.9865292e-04   9.7915428e-05   2.8545986e-04   1.5268846e-04  -8.5352294e-05  -1.1777451e-04   1.4591383e-04   3.9717078e-04   2.4398668e-04   1.0447978e-04   4.0172689e-04   6.3792674e-04   4.2483158e-04   3.3962959e-04  -1.3169010e-04   9.7602344e-04  -9.9999133e-06   4.9328554e-04   5.7321220e-05   2.0152642e-04   5.6943034e-05   3.1500444e-04   2.0411610e-05  -4.1523506e-04   5.2793080e-04  -3.6241330e-05   2.8552895e-04  -1.0908694e-03   1.0951085e-03
   4.6629866e-04   2.4354993e-04   4.7075507e-04   6.8629271e-04   7.4907293e-05   2.9047410e-04   4.0788171e-04   5.7176955e-04   5.5084942e-04   4.9602607e-04   2.5683027e-04   2.0457798e-04   2.3161326e-04   2.5906289e-04   2.2980952e-04   4.3552872e-04  -6.3965941e-05   2.1540394e-04   1.2505287e-03   5.7635025e-05   1.0840990e-04   4.1996839e-04   1.7532674e-04   1.8601517e-04   6.1199844e-06   7.5190488e-05  -1.2363843e-04   1.9352489e-04   3.7195615e-04   1.9674948e-04   4.8917631e-04   5.8488426e-04   1.3256979e-03   6.5771682e-04   3.6785752e-04   3.2778906e-05   7.3464558e-04   1.0458709e-06   4.5177716e-04   2.1923997e-04   3.4106741e-04  -2.2656284e-04   3.1277622e-04   7.0056251e-07  -3.5133277e-04   8.4698293e-04   4.6552843e-05   3.8736002e-04   6.2888314e-05   8.2704634e-04
   4.5819965e-04   2.3731156e-04   4.6118553e-04   6.7084725e-04   8.2199411e-05   2.5773799e-04   4.0519875e-04   4.6956103e-04   4.3322529e-05   4.9567223e-04   2.6793851e-04   2.1159271e-04   2.6418283e-04   2.7341294e-04   3.1432623e-04   4.4169993e-04  -3.4547153e-05   2.5851635e-04  -6.3299172e-04   9.3942770e-05   1.2875642e-04   3.9295162e-04   3.5658533e-05   6.4830885e-05   4.6526708e-05  -5.3506370e-05  -2.2295117e-04   1.7837260e-04   3.3200966e-04   2.4129725e-04  -7.5276810e-05   7.6792075e-04   1.1642635e-03   4.7838423e-04   3.6560284e-04   5.6160387e-04   8.5802877e-04  -2.8481609e-05   4.3985981e-04   7.2051378e-05   1.7717121e-04  -2.2902385e-04   3.1706871e-04   2.4415451e-04  -4.6823639e-04   3.9754246e-04   1.3580133e-04   2.8502793e-04  -1.2647806e-05   1.1986586e-03
   4.7507687e-04   2.4622097e-04   4.6937671e-04   6.6627882e-04   9.8338824e-05   2.9687447e-04   4.0387333e-04   4.2077448e-04   1.3305680e-03   5.0866930e-04   2.6137827e-04   1.7206570e-04   2.7685493e-04   2.8951353e-04   3.9476517e-04   4.5569069e-04  -3.2095541e-05  -4.1487918e-05  -4.3967634e-04   7.1453287e-05   1.2908905e-04   3.9373938e-04  -7.8327372e-05   3.0609377e-04   4.0743753e-06   1.6929398e-04  -1.3685803e-04   1.5400283e-04   3.1119364e-04   2.0534785e-04  -8.3283208e-05   6.1816804e-04   1.0947613e-03   4.5962047e-04   3.3321488e-04   5.6877948e-04   5.8430672e-04   1.8401239e-05   4.2986768e-04   1.8573641e-04   3.4977292e-04   2.1456974e-04   2.8015467e-04   1.1839707e-04   9.7354117e-05   5.7047710e-04  -3.2038242e-04   4.2380931e-04   9.8730117e-05   6.5958459e-04
   4.4592566e-04   2.2640884e-04   4.5041222e-04   6.5799372e-04   1.0369050e-04   2.3366521e-04   4.2274009e-04   4.7091028e-04   1.2521134e-03   4.7976695e-04   2.3026386e-04   1.9092334e-04   2.5720126e-04   3.2445177e-04   3.6235157e-04   4.9336796e-04  -6.6652188e-05   3.3491329e-04   8.7238947e-04   5.3878881e-05   6.9795147e-05   4.2286376e-04   7.7760938e-05   1.3097191e-04   9.2211914e-05  -1.5777159e-04  -1.8200029e-04   1.1839534e-04   3.7812183e-04   2.1818957e-04   5.8867584e-04   5.4607866e-04   5.4166396e-04   4.6336220e-04   3.6204769e-04   3.5272585e-04   4.6698313e-04  -6.8757341e-05   4.2721999e-04   1.4305001e-04   1.6528610e-04   3.4317436e-05   3.0123699e-04   4.1038316e-04  -6.4129330e-05   2.2246182e-04   2.8598623e-05   3.0634468e-04   6.7526661e-04   1.1548180e-03
   4.8056524e-04   2.4539349e-04   4.6038581e-04   6.7060138e-04   1.3301718e-04   2.6686231e-04   4.4823141e-04   5.1436940e-04   4.1818206e-04   4.8914569e-04   2.4796650e-04   2.3354561e-04   2.6972967e-04   3.3634872e-04   2.8510272e-04   5.1381841e-04  -6.5914945e-05  -1.5132144e-04   8.1241759e-04   8.4033767e-05   5.9510741e-05   4.3268490e-04   2.2023201e-05   1.0222588e-04   4.2658805e-05  -2.6904698e-05  -1.4063713e-06   1.4745233e-04   2.2429202e-04   2.5472630e-04   2.1967306e-04   2.9777485e-04   7.6672056e-04   4.2339877e-04   3.2653273e-04   2.6915973e-04   6.6400552e-04  -8.9377405e-05   4.2682947e-04   2.1322786e-04   4.4576859e-04  -1.7594882e-04   3.0659128e-04  -1.6817769e-04  -6.4980699e-04   1.0674011e-03  -1.3730957e-04   3.5455078e-04  -4.7055996e-04   4.2357965e-04
   4.6791590e-04   2.3513587e-04   4.2579958e-04   6.7306421e-04   9.4068979e-05   2.5860089e-04   3.6752748e-04   5.3944677e-04   1.5623571e-03   4.5067142e-04   2.2461069e-04   2.2441422e-04   2.8067362e-04   3.2068227e-04   4.1668248e-04   4.6554790e-04  -5.7185349e-05  -1.3708204e-04   7.7495002e-04   9.4759678e-05   3.9961436e-05   3.9784083e-04   1.1415682e-04   7.5162410e-05   1.7117914e-04   3.4348737e-04  -4.6781137e-05   1.7400272e-04   4.0599622e-04   2.2039092e-04   7.1732502e-04   5.2328827e-04   1.7239021e-04   3.7240362e-04   3.1363725e-04   4.5725566e-04   8.7706349e-04  -1.3112812e-04   5.0523778e-04   1.8525224e-04   2.6795850e-04   6.3699867e-06   3.4013457e-04   1.9067631e-04  -2.5683531e-04   1.4952887e-03   9.9071978e-05   3.2984707e-04  -1.9984592e-04   1.1446821e-03
   4.6237756e-04   2.1410512e-04   4.5697414e-04   6.5680692e-04   9.1390306e-05   2.3992978e-04   4.4856238e-04   5.1868398e-04  -2.2480448e-04   4.4121008e-04   2.5080863e-04   2.3676909e-04   2.5141891e-04   3.4004866e-04   2.8174263e-04   4.9767620e-04  -6.9511334e-05   8.6587301e-05   5.4195925e-04   9.0544178e-05   4.9685099e-05   3.9948363e-04   1.5033004e-04   3.2835724e-04   1.3473410e-04   2.4731128e-04  -1.3606828e-04   2.1004135e-04   3.6267054e-04   2.6076115e-04   2.6304048e-04   1.4027279e-04   1.1402855e-03   3.8621417e-04   3.4493743e-04   1.0506483e-04   6.8160990e-04  -1.5544717e-04   5.6225277e-04   4.6389794e-04   2.4669152e-04  -3.9609389e-05   3.3141891e-04   2.3430427e-04  -6.1234756e-04   1.5114815e-03   1.7111157e-05   4.3063390e-04   1.4896724e-04   1.0558991e-03
   4.6565896e-04   2.4988348e-04   4.4623419e-04   6.8212283e-04   9.0377689e-05   2.7618435e-04   3.5238234e-04   5.2568695e-04  -2.5862138e-04   4.3440520e-04   2.6528692e-04   2.0926601e-04   2.9373425e-04   3.2546790e-04   3.2824985e-04   4.8639139e-04  -4.2012081e-05   3.2912518e-04   1.1745726e-03   1.0637678e-04   4.2059484e-05   3.5868087e-04   1.3379156e-04   1.0112025e-04  -2.5591449e-05   1.2920544e-04  -2.3727918e-05   2.3433476e-04   3.1429197e-04   2.6451849e-04   3.9283425e-04   2.5374102e-04   1.2030865e-03   3.5666072e-04   3.8272698e-04   4.1873488e-04   7.0717023e-04  -1.5928551e-04   4.9914274e-04   2.2614223e-04   1.2905062e-04  -2.8583338e-04   3.5111126e-04   1.6322872e-04  -4.0235597e-04   1.0128104e-03   4.9698530e-05   5.3095765e-04  -6.9854368e-04   4.2657266e-04
   4.6580628e-04   2.3784826e-04   4.2267633e-04   6.7549339e-04   1.0411350e-04   2.9777858e-04   4.3796585e-04   4.7946494e-04  -1.1386798e-03   4.0809927e-04   2.5275510e-04   1.9500100e-04   2.7906921e-04   3.3365187e-04   3.8988155e-04   4.5946147e-04  -8.4297193e-05   2.3609797e-04  -1.2793753e-04   1.0452987e-04   2.7489377e-05   3.4605138e-04   7.6887576e-05   2.7390022e-04  -3.7091562e-05   3.0438205e-05  -1.3373795e-04   1.5022112e-04   3.2314952e-04   2.8983096e-04   5.2638195e-04   4.1435502e-04   1.5852296e-03   5.4183608e-04   3.4376938e-04  -2.3913465e-04   9.0700598e-04  -1.8672098e-04   4.7433161e-04   3.9500603e-04   1.8151049e-04   2.3991292e-04   3.2304766e-04   1.8193145e-04  -1.1946431e-05   7.0098345e-04   7.4293952e-05   4.1659342e-04  -3.8040199e-04   5.2889023e-04
   4.5978333e-04   2.4492355e-04   4.4579778e-04   6.6410302e-04   1.5036212e-04   2.8714456e-04   4.6915325e-04   4.8713994e-04   1.0827848e-03   4.2562769e-04   2.5122496e-04   2.3353487e-04   3.0366433e-04   3.2149174e-04   3.5614157e-04   4.5984972e-04  -6.5556385e-05   8.0367601e-05  -4.4448732e-04   1.1927640e-04   4.6750243e-05   4.6396273e-04   1.5812446e-04   1.5502976e-04   1.5524782e-04   1.5484590e-04   7.7454988e-06   2.6541878e-04   3.1646405e-04   2.4630380e-04   2.3168041e-05   3.4359744e-04   4.3495829e-04   3.7774284e-04   3.9994202e-04   9.9617196e-04   7.9824933e-04  -1.9416479e-04   4.9611344e-04   2.1632406e-04   2.1948440e-04   2.4698046e-04   3.0068803e-04   2.7003998e-04  -2.3482617e-05   1.3800878e-03   1.6994451e-04   2.5472682e-04  -1.1412535e-03   6.8170461e-04
   4.4328050e-04   2.4240167e-04   4.3914578e-04   6.8469072e-04   1.3290130e-04   2.9113711e-04   4.1252578e-04   5.2782579e-04  -5.9621576e-05   4.1272753e-04   2.4849188e-04   2.1975031e-04   3.1591213e-04   3.1489745e-04   2.6369074e-04   4.2163488e-04  -9.2970571e-05   3.2623391e-06   7.9452287e-04   1.1100672e-04   3.3274715e-05   3.6374602e-04   1.1877650e-04   2.4838303e-04  -4.4717908e-06  -1.3329973e-04  -7.2746996e-05   1.8050459e-04   2.5964106e-04   2.5185966e-04   1.1141322e-04   2.9967268e-04   1.2907691e-03   2.9940539e-04   3.6715320e-04   1.0322948e-04   7.2154618e-04  -1.9725465e-04   4.2158650e-04   1.7723783e-04   3.8638996e-04  -1.5051014e-05   2.9791007e-04   3.3683877e-04  -6.2565366e-04   1.2878340e-03  -1.2158349e-04   4.4778947e-04  -1.2228906e-03   7.3637883e-04
   4.6622183e-04   2.2989458e-04   4.3636496e-04   6.6902715e-04   1.1047756e-04   2.5703417e-04   3.7256427e-04   4.4929906e-04   3.9493782e-04   3.8979106e-04   2.2924451e-04   1.9730843e-04   2.8300847e-04   3.0108306e-04   4.3523908e-04   4.2790084e-04  -6.2819614e-05   8.5395441e-05   5.8378751e-04   9.9757613e-05   2.8041195e-05   4.0592253e-04   8.0914098e-05   2.4573563e-04  -1.4503491e-04  -5.4485514e-05  -1.0362029e-04   2.0565951e-04   2.0804764e-04   2.5795767e-04   3.9401790e-04   3.4934722e-04   3.1812524e-04   4.2859340e-04   3.7145105e-04   8.3151192e-04   6.7800243e-04  -2.0385471e-04   4.6593783e-04   5.7456753e-04   2.5709657e-04   2.7205941e-04   3.3060959e-04  -2.3297689e-06  -5.6288589e-04   4.1848289e-06  -1.7300273e-04   4.1403237e-04   2.8384113e-04   1.2687532e-03
   4.5759964e-04   2.6630072e-04   4.6433508e-04   7.0253306e-04   9.9336707e-05   2.3020845e-04   3.9954126e-04   4.7324153e-04  -2.2544981e-04   4.2056793e-04   2.5564822e-04   2.1964610e-04   2.6748658e-04   2.6430740e-04   2.6073196e-04   3.9250666e-04  -6.0002683e-05   1.6312198e-04   6.8604917e-04   1.0603954e-04   7.5829907e-05   3.7425102e-04   2.0315073e-04   8.6199085e-05   1.8452721e-04  -2.9939110e-04  -2.5569511e-04   1.0945177e-04   2.7297577e-04   2.2361281e-04   3.5918929e-04   3.6172580e-04   3.6974781e-04   4.1821480e-04   3.5373273e-04   2.3238728e-05   9.3980355e-04  -1.3563875e-04   5.1549159e-04   9.6182494e-06   3.7263977e-04   2.3057329e-04   3.0272239e-04  -2.6008853e-04  -1.6441476e-04   1.0639060e-03   2.0641161e-04   2.4909334e-04  -1.8941140e-03   9.5616974e-04
   4.4437667e-04   2.4319690e-04   4.2785198e-04   6.6110038e-04   1.0980052e-04   2.8407277e-04   3.3350897e-04   4.4977112e-04  -1.2289803e-04   4.1032303e-04   2.0523513e-04   2.0792909e-04   2.5539749e-04   2.9770087e-04   3.4836255e-04   3.7763477e-04  -9.1640526e-05   2.5299293e-04   1.2837872e-03   1.0429825e-04   4.0592517e-05   4.5774228e-04   7.1874660e-05   2.1466843e-04   1.7516661e-04  -4.8079150e-05  -1.5426896e-04   2.3062354e-04   2.0976218e-04   2.3785044e-04  -6.0848914e-05   3.2640094e-04   6.2531128e-04   3.4162457e-04   3.7008175e-04   6.0436485e-04   7.9737185e-04  -1.8164876e-04   3.9822535e-04   3.7713238e-04   1.2163245e-04   1.0589579e-04   2.9114124e-04   3.0221001e-04  -1.8150060e-04   1.6228195e-03   1.2603567e-04   4.0963633e-04   2.0366530e-04   1.1443062e-03
   4.4635634e-04   2.5231301e-04   4.3123425e-04   6.8113289e-04   1.4070139e-04   2.9351632e-04   3.9045420e-04   4.4567458e-04  -2.1146094e-04   4.2167041e-04   2.5843162e-04   1.9284173e-04   2.9611334e-04   2.7580807e-04   2.6501631e-04   3.5862229e-04  -8.8440953e-05  -9.4496980e-05   5.6788465e-04   8.2903629e-05   4.4485438e-05   4.2854765e-04   9.5683958e-05   2.4870559e-04  -3.1016705e-06   3.2804630e-05  -1.1642532e-04   1.9445941e-04   2.4615592e-04   2.5312140e-04  -1.6661375e-05   1.4504239e-04   7.0520031e-04   5.3714041e-04   3.6322715e-04   2.6390512e-04   9.1562292e-04  -1.5385855e-04   4.7956323e-04   3.2544389e-04   1.8987768e-04   1.3609795e-04   2.9065169e-04   3.3953600e-04  -2.8488619e-04   1.1580589e-03  -2.4860393e-04   4.0453559e-04  -5.9962668e-04   9.0740167e-04
   4.6191987e-04   2.5506344e-04   4.5950987e-04   6.8661442e-04   1.2535164e-04   3.0179377e-04   4.4454352e-04   4.2000771e-04   7.5176609e-04   4.3150224e-04   2.4270233e-04   1.9452897e-04   2.5230297e-04   2.6113013e-04   4.1076186e-04   3.5243470e-04  -9.9344848e-05   3.8089132e-04   1.2844139e-04   7.9092097e-05   3.8911414e-05   3.9050356e-04   1.9154274e-04   5.5637873e-05   3.4796216e-05  -2.8447731e-04  -9.5293413e-05   2.1028808e-04   2.3107277e-04   1.8683665e-04   6.1346096e-04   3.5691619e-04   1.3827694e-03   5.5854709e-04   3.2287050e-04   2.2149687e-04   6.1902672e-04  -1.6432992e-04   4.9393007e-04   1.3728773e-04   5.0508208e-04  -1.0141585e-04   3.1406083e-04   3.9196668e-05  -2.1674676e-04   1.7383372e-04  -1.9348302e-04   3.3510412e-04  -3.8747411e-04   5.8446382e-04
   3.9838883e-04   2.3649285e-04   4.5098609e-04   6.4437621e-04   1.2539231e-04   2.7766652e-04   3.9950261e-04   4.3549456e-04   2.8690873e-04   3.9777660e-04   2.3703149e-04   1.9783374e-04   2.9116948e-04   2.6571591e-04   2.0207037e-04   3.3926824e-04  -1.1727237e-04   3.9043571e-04   1.6515120e-04   8.0095007e-05   2.8803615e-05   3.9213966e-04  -4.1256815e-05   3.1159539e-04   1.2258835e-05  -6.9511829e-05  -6.8897367e-05   1.9173381e-04   2.1258750e-04   1.7503335e-04   2.8268385e-04   3.1140796e-04   6.3753605e-04   4.0034237e-04   3.8274363e-04   9.3100296e-04   7.1359478e-04  -1.8832101e-04   5.6222477e-04   2.2170556e-04   3.6151920e-04   2.4135360e-04   3.1035190e-04   1.7138674e-04   1.9509636e-04   1.4423335e-03   1.2450159e-04   2.9142745e-04  -4.5981101e-04   7.1980443e-04
   4.6199330e-04   2.5979339e-04   4.2886363e-04   6.7611726e-04   1.1558865e-04   2.8634653e-04   4.1649831e-04   4.0755700e-04   5.7415647e-04   3.8841277e-04   2.4263718e-04   1.9267466e-04   2.6341312e-04   2.5145261e-04   2.4250579e-04   3.2284984e-04  -1.3053122e-04  -3.5022120e-05   1.6174510e-03   8.1965707e-05   1.8869745e-05   3.9318585e-04   9.1723603e-05   1.4707644e-04   2.6599879e-04   1.0699577e-04  -9.0774913e-05   2.0728692e-04   2.1888301e-04   2.4749964e-04   2.0488174e-05   1.8483776e-04   5.7817454e-04   3.5368028e-04   3.7960027e-04   2.7787877e-04   8.9591456e-04  -1.9576197e-04   4.3041352e-04   4.3726451e-04   3.2613394e-04   3.0478573e-04   2.7819831e-04  -1.2602889e-05   6.3175525e-05   9.2927640e-04  -4.2535896e-05   3.1188581e-04   1.8090525e-03   7.6889782e-04
   4.4688783e-04   2.3735189e-04   4.3624995e-04   6.5961829e-04   1.3792247e-04   2.5849818e-04   3.9799375e-04   4.3793494e-04  -4.9543206e-04   3.7535198e-04   2.4717086e-04   1.9761857e-04   2.4413428e-04   2.4272404e-04   1.9201466e-04   3.3766928e-04  -9.4924610e-05  -1.0226385e-05  -6.0036842e-04   8.8208260e-05   9.3865301e-06   3.9104564e-04  -5.4376997e-06   5.3045122e-05  -6.0588216e-05   2.5570055e-04  -1.9844355e-04   2.1126732e-04   1.8497359e-04   2.2737522e-04   1.4904360e-04   4.1709788e-04   7.2526658e-04   3.9418254e-04   3.9090219e-04   7.7769975e-04   8.2423992e-04  -2.2220431e-04   4.6941481e-04   5.2826537e-04   2.9237117e-04   3.8652864e-04   2.9489608e-04   1.7240997e-04  -3.2594425e-04  -8.4992498e-04   1.9525092e-04   3.2272298e-04   3.5142206e-04   6.4543472e-04
   4.4802713e-04   2.4379537e-04   4.5592198e-04   6.8446121e-04   1.0979509e-04   2.4933365e-04   3.4685843e-04   4.0994459e-04   4.4275643e-04   3.9351164e-04   2.4736332e-04   2.2784653e-04   2.3902845e-04   2.5897127e-04   2.8302381e-04   3.3267910e-04  -1.0822664e-04  -1.8797389e-05   7.8421866e-04   9.4413903e-05   2.6440319e-05   4.1536835e-04   1.5978879e-04   1.6726521e-04   4.3502150e-05  -4.1550380e-04  -6.6861889e-05   1.8216955e-04   2.1895762e-04   2.4284661e-04  -2.0688315e-04   3.7159590e-04   1.1303773e-03   3.5764617e-04   3.4231532e-04   2.6470030e-04   7.9823635e-04  -2.2076990e-04   4.8337746e-04   3.2497849e-04   2.1654369e-04  -3.6909696e-05   2.9157184e-04  -1.2966343e-04  -2.6067116e-04   1.4004967e-03  -1.2998990e-04   3.6354404e-04   3.0527549e-04   4.6825357e-04
   4.5475742e-04   2.3959941e-04   4.3257608e-04   6.6637911e-04   1.3171043e-04   2.9610842e-04   3.9200729e-04   3.3133049e-04   9.6211024e-04   3.8957014e-04   2.3355166e-04   1.9852676e-04   2.9673512e-04   2.5033034e-04   3.4584300e-04   3.2148484e-04  -1.0172836e-04  -1.4199744e-04   7.8573189e-04   8.9837355e-05   1.2429125e-05   4.2440495e-04   1.1816906e-04   2.2104094e-04   1.3611981e-04  -3.1316222e-04  -2.0998178e-04   1.6255207e-04   9.3295275e-05   2.5437766e-04   2.1289309e-04   3.3310454e-04   1.6803915e-03   4.2976844e-04   3.4475027e-04   4.2010719e-04   7.9498754e-04  -2.4150852e-04   4.3304201e-04   9.8871060e-05   1.7986110e-04   2.7986307e-05   2.8843360e-04   1.6183029e-04  -1.7935048e-04   1.7482104e-03  -2.1066930e-04   3.7025334e-04  -8.0885581e-04   7.7262963e-04
   4.0248191e-04   2.2321221e-04   4.2159308e-04   6.3478784e-04   1.1825821e-04   2.7156525e-04   4.0215830e-04   4.3253138e-04  -3.9522597e-04   3.7735724e-04   2.3822080e-04   1.9588332e-04   2.7014568e-04   2.3547305e-04   4.0379993e-04   3.0494720e-04  -1.1693878e-04   2.0833324e-04   1.2941675e-03   9.8385433e-05   2.0806838e-05   3.9273250e-04   6.8367954e-05   8.1730592e-05   1.1617364e-04   1.0733127e-04  -2.3305511e-05   1.2659446e-04   2.0290016e-04   2.5877298e-04   4.2708896e-05   1.6035192e-04   1.0440456e-03   4.7452064e-04   3.8829600e-04  -5.7264365e-04   1.0059724e-03  -2.4541319e-04   5.0652196e-04   4.9453281e-04   2.3917998e-04  -1.9763389e-05   2.8365370e-04   1.8968141e-04  -3.4741148e-05   1.0887900e-03  -6.3335094e-05   2.7007415e-04   2.1060054e-04   8.4516127e-04
   4.4378426e-04   2.4213798e-04   4.4303606e-04   6.8098737e-04   1.4974590e-04   2.8708333e-04   4.0725296e-04   3.2808562e-04   3.4289848e-04   3.9072527e-04   1.9809796e-04   2.0907560e-04   2.4724141e-04   2.3009651e-04   3.6930258e-04   3.3082132e-04  -8.8767578e-05  -2.9346568e-04   1.7540625e-04   1.0718519e-04   1.5100518e-05   4.1554452e-04   8.9718407e-05   2.6844325e-04  -7.0226684e-05   2.5430554e-05  -1.7413567e-04   1.9330272e-04   1.8507453e-04   2.3892349e-04  -2.7797085e-05   3.2803399e-04   3.5870099e-04   5.2577356e-04   3.8484603e-04   6.2311307e-04   7.5421052e-04  -2.5320757e-04   5.5259286e-04   6.4723927e-04   3.9980732e-04   1.8766483e-04   2.6158107e-04   2.5202558e-05  -4.1305574e-04   7.9028355e-04  -1.7881265e-04   3.6220253e-04  -2.1453814e-03   9.5772633e-04
   4.1438988e-04   2.4117964e-04   4.2640630e-04   6.5761979e-04   1.3993187e-04   2.1294180e-04   4.2427113e-04   4.1285830e-04   9.2821347e-04   3.6941888e-04   2.3892039e-04   2.0830230e-04   2.7246907e-04   2.1870203e-04   4.1210678e-04   2.9835917e-04  -9.0982321e-05  -2.7477179e-05   8.5610873e-04   8.3157516e-05   1.2740514e-05   3.6816552e-04   6.2325096e-05   7.8985293e-05   1.9524302e-04  -1.6475718e-04  -1.8748129e-04   1.5304609e-04   1.7506297e-04   2.5821000e-04   2.5789445e-04   2.1787082e-04   1.0088292e-03   5.8596669e-04   3.8481192e-04   6.8244908e-04   1.1325583e-03  -2.5879001e-04   4.4824727e-04   1.9654645e-04   4.1014544e-04   8.5649117e-05   2.8037606e-04   5.7728386e-05  -5.0033524e-04   4.4585722e-05   1.1353771e-04   3.1822236e-04  -7.6158671e-04   3.9842748e-04
   4.2198048e-04   2.4698293e-04   4.2526174e-04   6.5832678e-04   1.3584345e-04   2.9727700e-04   4.2177550e-04   3.2537416e-04   6.8315264e-04   3.9122583e-04   2.3812316e-04   2.1489634e-04   2.5685385e-04   2.4497721e-04   3.2877835e-04   3.3439961e-04  -1.0184037e-04  -1.9981488e-04   6.6217681e-04   1.0603944e-04   2.2070481e-05   4.5660543e-04   1.3624848e-04   7.5433833e-05   3.4828603e-04   3.7470378e-05  -1.3468666e-04   2.2348852e-04   2.3955655e-04   2.6614373e-04   4.3273382e-04   2.7676695e-04   6.2575418e-04   2.9941721e-04   4.1083447e-04   7.4045244e-04   7.5056951e-04  -4.5678299e-04   4.6928777e-04   4.1360495e-04   4.7182172e-04   1.8691193e-04   2.5400019e-04  -3.1138873e-06  -4.7725198e-04   9.2623336e-04   1.8548999e-04   4.1140043e-04   7.6956203e-04   3.8462054e-04
   4.0865311e-04   1.4940054e-04   3.6583163e-04   5.0952419e-04   7.2222603e-05   1.9248280e-04   4.2306038e-04   5.1897066e-04   9.3262928e-04   3.1605473e-04   3.9002957e-04   1.6645598e-04   3.7128391e-04   2.1325542e-04   1.0734900e-04   2.8292398e-04   1.4217952e-05   2.2266123e-04   6.8975007e-04   4.2174669e-04   1.4566070e-04   1.9912161e-04   8.0996695e-05  -5.3391945e-05  -9.4440315e-05   1.7750050e-06  -1.8641951e-04   1.0965653e-04   2.4467628e-04   3.2288706e-04   1.1613141e-04  -1.0930261e-04   1.1157976e-03   4.8911391e-04   4.2125146e-04   1.1029166e-04   7.9154270e-04  -7.5688650e-04   5.1232305e-04  -6.2051600e-05   7.8443278e-05  -6.9691392e-05   2.4594506e-04   1.6282768e-04  -4.3022636e-04   6.1637524e-04  -1.9519437e-04   2.1130357e-04  -1.5029677e-03   1.2663765e-04
   3.5326343e-04   1.8553213e-04   3.5174107e-04   5.8666628e-04   9.9531972e-05   2.3071560e-04   4.2280470e-04   3.7981747e-04   5.1248255e-05   2.8958559e-04   2.3585900e-04   1.5615860e-04   2.7950288e-04   2.3698354e-04   1.9523056e-04   3.1739983e-04  -9.7490680e-05   6.8439978e-05   1.1101415e-03   1.8152938e-04   5.7845216e-05   2.2198699e-04   7.4887816e-05   1.2444754e-04   4.6035573e-05   6.5007098e-06  -2.4758422e-04   9.6431650e-05   2.4328272e-04   3.0440837e-04   1.7976771e-04   1.5728024e-04   5.8109628e-04   2.7602504e-04   4.5467060e-04   5.7696342e-04   7.5806014e-04  -5.8449915e-04   4.7515001e-04   1.9554464e-04   2.2455119e-04   5.4860204e-05   2.5429076e-04  -1.4622764e-04  -2.2019155e-04   1.5135452e-03   3.8107843e-05   2.9065902e-04  -8.9884976e-05   4.3650484e-04
   3.5561679e-04   2.0463356e-04   3.8006500e-04   6.2211812e-04   9.7049524e-05   2.1162377e-04   3.4554780e-04   3.6821820e-04   1.3221774e-03   2.7226558e-04   2.2680634e-04   1.6371287e-04   3.0020694e-04   2.4229530e-04   2.4808556e-04   3.1212627e-04  -1.1055067e-04   1.4369497e-04   1.2196498e-03   1.4343552e-04   3.8100334e-05   1.5522251e-04   2.4700016e-04   2.0971541e-04   3.6705285e-04  -1.4933995e-04  -2.0056452e-04   5.6179779e-05   1.9679261e-04   2.2799562e-04   4.9510429e-04   3.1902810e-04   5.8886927e-04   2.1246655e-04   3.7772118e-04   5.3824263e-04   1.1150850e-03  -5.2213186e-04   4.3492607e-04  -2.4015480e-04   2.8620579e-04  -1.0246448e-04   2.4232797e-04   2.9426542e-04  -8.5636442e-05   2.5869528e-04  -4.2366468e-05   1.6385224e-04  -3.7957641e-04   2.3179245e-04
   3.6447134e-04   1.9780839e-04   3.8881364e-04   5.9552200e-04   1.0148552e-04   2.3729457e-04   3.1785236e-04   3.7998828e-04   6.4062147e-04   2.5586807e-04   2.0754233e-04   1.5704877e-04   3.3225308e-04   1.9765507e-04   2.8650503e-04   3.3889117e-04  -9.2392147e-05   2.9764931e-05   7.0573547e-04   1.5850940e-04   2.7033804e-05   1.4813560e-04  -1.7942224e-05   1.3733246e-04  -8.5905587e-05   8.6095264e-05  -1.9566833e-04   1.3204206e-04   2.2333115e-04   2.8306415e-04  -3.2079191e-04   1.4572273e-04   1.0670504e-03   3.0966065e-04   3.6442239e-04   9.7718637e-04   9.2163874e-04  -5.1572442e-04   4.8959436e-04   3.8303874e-04   2.3939634e-04  -6.9806840e-05   2.1113624e-04   1.7692805e-04  -3.4515315e-04  -2.3483750e-05  -3.8896978e-05   3.2799321e-04   1.2987568e-03   2.3210850e-04
   3.7504916e-04   2.1693303e-04   4.0739062e-04   6.2290742e-04   1.0282491e-04   2.5832839e-04   3.8722722e-04   3.2498047e-04  -3.2835380e-06   2.7216625e-04   2.6026194e-04   1.8044909e-04   2.6386112e-04   2.1938681e-04   3.3158532e-04   3.1829166e-04  -1.1809146e-04   5.6719797e-04  -4.9290748e-04   1.4979838e-04   2.9163786e-05   1.6785873e-04   1.7977074e-04   4.6787765e-05   7.3300755e-05   1.5425619e-04   7.9035390e-06   6.7253990e-05   2.0432840e-04   2.9066397e-04   2.6410818e-04   1.2091221e-04   1.1324768e-03   2.6671134e-04   3.5584447e-04   7.6120434e-04   8.3713967e-04  -5.0993968e-04   3.5059432e-04   1.2753678e-04   3.2465692e-04   1.6184789e-04   2.7046521e-04  -7.9241268e-05  -4.9797847e-04   2.2395295e-03  -2.5459811e-05   2.6854250e-04   3.0360765e-05   5.7532819e-04
   3.9891241e-04   2.0630454e-04   4.0652681e-04   6.0134393e-04   7.8305617e-05   1.9872151e-04   4.0204369e-04   4.3248723e-04   3.7677091e-04   2.5878279e-04   2.4939846e-04   1.3966672e-04   2.6593424e-04   2.2084420e-04   2.4240020e-04   3.6088546e-04  -1.0658298e-04  -1.9412181e-04   1.6224080e-03   1.3143718e-04   1.4295418e-05   1.7164082e-04   1.3207609e-04   2.5583076e-04  -4.1338797e-05  -3.6291708e-04  -1.7182653e-04   1.6039463e-04   2.5980055e-04   2.7183813e-04   3.0625158e-04   5.7269412e-04   3.8622541e-04   1.5801170e-04   4.1551428e-04   7.6677022e-04   8.1578898e-04  -4.8498609e-04   4.8725438e-04  -1.1839122e-04  -2.4877299e-06   2.3404694e-04   2.7802415e-04   3.0310306e-04  -2.7252469e-04   1.9440746e-04  -2.0231640e-04   3.9692046e-04  -8.4160740e-04   6.7281304e-04
   3.7642076e-04   2.0727409e-04   3.9329537e-04   6.0860842e-04   9.4167350e-05   2.8160712e-04   4.0024030e-04   4.0904045e-04   2.1643851e-04   2.6374706e-04   2.4270406e-04   1.3686104e-04   2.7777010e-04   2.1804339e-04   2.0342699e-04   3.3961638e-04  -9.9351484e-05   2.3633207e-04  -3.0832901e-04   1.6530411e-04   2.4670057e-05   2.1081736e-04   1.7805964e-04   2.3141639e-04   2.2105745e-04   2.1075376e-04  -1.4561437e-04   1.0943048e-04   1.6706027e-04   2.9799898e-04  -8.9051711e-05   3.0222483e-04   7.2172051e-04   2.7646110e-04   3.8651252e-04  -5.3964988e-05   6.1534019e-04  -4.7650468e-04   4.5889831e-04   3.9326955e-04   4.8033562e-06  -2.9222443e-05   3.0362059e-04  -1.8939542e-04  -2.4221600e-04   1.6675671e-04  -3.6168893e-04   2.9185362e-04  -2.1100442e-04   5.7337969e-04
   3.9227333e-04   2.1867293e-04   4.1977875e-04   6.2994909e-04   8.7738757e-05   2.4882017e-04   3.3300152e-04   4.1099009e-04   3.6947924e-04   2.6826092e-04   2.5494624e-04   1.1379743e-04   2.9202618e-04   2.3457540e-04   2.3617860e-04   3.7485507e-04  -8.6080006e-05   3.2229250e-04   1.3859237e-04   1.3336386e-04   1.6241267e-05   1.7533859e-04   1.3175121e-04   7.8941928e-05   2.7416038e-04   3.8132955e-06  -1.4580334e-04   1.4399411e-04   2.3084572e-04   2.9113860e-04  -1.5338986e-04   4.9263495e-04   2.8803060e-04   3.0967550e-04   4.0408771e-04   4.3305403e-04   8.6689455e-04  -4.7447628e-04   4.7251079e-04   1.9313167e-04   2.4614067e-04   8.1833794e-05   3.0718656e-04   2.1702879e-05  -2.2651868e-04   8.2621758e-04   2.6436980e-04   2.6334776e-04  -7.3665185e-05   1.2449473e-04
   3.6377553e-04   2.0024902e-04   3.9433115e-04   6.1156112e-04   1.1607716e-04   2.5557799e-04   3.9576142e-04   4.0225385e-04   2.7175178e-04   2.4014038e-04   2.3569817e-04   1.3169138e-04   2.7962416e-04   2.5577162e-04   3.4680043e-04   3.8022423e-04  -6.7843765e-05   1.3190634e-04   2.7637236e-04   1.6022874e-04   1.2649263e-05   2.2786052e-04  -1.1699921e-04   2.5676488e-04   1.0402613e-04  -3.2611155e-05  -2.9768184e-04   1.0076969e-04   2.4326507e-04   2.9339266e-04   2.9228377e-05   2.0576462e-04   8.0844207e-04   3.2505638e-04   3.2897017e-04   3.1880345e-04   7.3805480e-04  -4.6492575e-04   4.4895581e-04   3.5749192e-04   7.3361633e-05   8.0139253e-05   2.8836142e-04  -7.2833376e-05  -5.1544956e-04   1.3166679e-03   1.4850352e-04   3.8260757e-04  -1.2706631e-03   7.5646583e-04
   3.9146378e-04   2.1918154e-04   4.1635270e-04   6.1619218e-04   1.0307558e-04   2.5125380e-04   3.3948949e-04   4.4215971e-04   4.2635223e-04   2.5354914e-04   2.4115204e-04   1.3455572e-04   2.7959183e-04   2.4186219e-04   3.6470129e-04   3.8766323e-04  -7.6315875e-05   2.2264681e-04   1.2089560e-03   1.5214199e-04   1.8070226e-05   1.9109854e-04   1.4243492e-05   1.8561512e-04   1.4139892e-04   9.5050207e-05  -9.8368830e-05   1.6614863e-04   2.8000047e-04   2.9128848e-04   3.7639105e-04   3.5601883e-04   4.0516892e-04   3.7226648e-04   3.6606452e-04   2.1537869e-04   5.3540373e-04  -4.6202503e-04   4.8989337e-04   3.6395490e-04   2.0688213e-04   1.0065502e-05   2.6823411e-04  -9.0488516e-05  -8.1141043e-04   4.8285120e-04   3.9763327e-04   2.4869508e-04   3.4580840e-04   2.8641691e-04
   3.7372552e-04   2.0975861e-04   3.8529685e-04   6.0739234e-04   1.0441237e-04   2.2314093e-04   3.1767524e-04   4.4892076e-04   4.6441855e-04   2.5280617e-04   2.5203673e-04   1.3739063e-04   2.9389965e-04   2.5818901e-04   2.4518545e-04   4.1107109e-04  -8.0920880e-05  -2.4287638e-04   4.0439548e-04   1.3950015e-04   3.1291279e-06   2.1345397e-04   1.6013302e-04   2.6641050e-04   1.2567015e-04   5.0741495e-05  -6.2160019e-05   1.8870762e-04   2.3407138e-04   3.0786387e-04  -1.2736749e-04   3.1557979e-04   1.6722461e-04   1.4723601e-05   4.1236728e-04   6.9930899e-04   7.6597248e-04  -4.6299203e-04   4.8183676e-04   2.7181886e-04   4.0181511e-04  -8.7512439e-05   2.8354488e-04   1.9460340e-05  -3.7607530e-04   8.4834296e-04  -2.4166290e-04   3.6439780e-04  -1.3585582e-03   7.2110887e-04
   4.0291093e-04   2.1404514e-04   3.8741060e-04   5.9619674e-04   1.0698933e-04   2.5132953e-04   3.6115589e-04   3.5962358e-04   1.0117692e-03   2.5715522e-04   2.2968290e-04   1.2596278e-04   2.8696022e-04   2.5690926e-04   2.9407619e-04   4.2148153e-04  -8.3879648e-05   4.6638923e-04   1.0287089e-04   1.5739392e-04   2.0523103e-05   2.0461522e-04   1.3331465e-04  -5.8311205e-05   1.3643042e-04   1.5815443e-04  -4.0207884e-05   9.0933798e-05   2.9524931e-04   2.8078491e-04   2.6164445e-04   2.6087367e-04   4.4820784e-04   2.7662306e-04   3.7686099e-04   8.0193608e-04   7.8812131e-04  -4.3253630e-04   4.1285373e-04   4.6317498e-04   3.6334040e-04   1.1901640e-04   2.9612673e-04   1.2743071e-04  -3.5298229e-04   2.4900279e-05   2.4263482e-04   4.9043784e-04   6.1949540e-04   5.3858780e-04
   4.1171972e-04   2.1992330e-04   3.7615179e-04   6.0462940e-04   1.0310826e-04   2.6645997e-04   3.7421210e-04   3.7026827e-04   3.8144004e-04   2.4717924e-04   2.7307740e-04   1.5058919e-04   2.8509230e-04   2.8292424e-04   2.7492605e-04   4.5122186e-04  -7.0171955e-05   7.0764258e-04   4.6203224e-04   1.4411952e-04   1.4844362e-05   1.7106647e-04   1.0398170e-04   1.7359601e-04   1.6259358e-04  -8.5708300e-05  -7.6342061e-05   1.6818430e-04   2.8200602e-04   2.6508563e-04   2.1330176e-04   4.2337732e-04   5.3170032e-04   2.1203086e-04   3.5088186e-04   2.6687430e-04   6.8067096e-04  -4.3097307e-04   4.6937977e-04   3.1676664e-04   3.0210387e-04  -1.0152662e-04   2.8940401e-04   2.7829266e-04  -6.5043400e-04   1.2346986e-03   4.7000354e-05   4.2207079e-04  -1.9327676e-04   1.1427886e-03
   3.9274039e-04   2.0522811e-04   3.7306876e-04   6.1189232e-04   1.1614298e-04   2.4838996e-04   2.8613457e-04   3.9237653e-04   3.7522629e-04   2.2835055e-04   2.4116314e-04   1.0541757e-04   2.9800428e-04   3.0402024e-04   9.4894058e-05   4.5030523e-04  -4.9041006e-05   6.9491571e-04   3.3832632e-04   1.4277009e-04   1.3995376e-05   1.8910080e-04   9.9616009e-05   2.0239604e-04   7.1412178e-05   1.1770306e-04  -1.0243102e-04   1.8483002e-04   3.4259551e-04   2.9648611e-04   2.5485270e-04   1.9480917e-04   4.8128417e-04   3.5278476e-04   3.7042415e-04   3.2451129e-04   6.7625142e-04  -4.4542365e-04   4.2848193e-04   9.8779601e-05   3.9805018e-04  -1.1303532e-04   3.0950288e-04   2.1014562e-04  -1.5836101e-04   1.4104957e-03   3.9817722e-05   4.0387307e-04  -2.4202447e-03   7.1618555e-04
   4.2976107e-04   2.2996429e-04   3.7987382e-04   6.0532073e-04   1.1114641e-04   2.2348041e-04   3.8012391e-04   3.6991903e-04   2.1280801e-04   2.4628703e-04   2.7601453e-04   1.1818687e-04   3.1495182e-04   2.7233630e-04   2.7659393e-04   4.3072479e-04  -9.1999245e-05   1.6796670e-04   1.7946681e-04   1.7466339e-04   1.5426884e-05   1.7241634e-04   1.9832903e-05   2.3976802e-04  -5.4753600e-05   2.4488604e-06  -8.4720778e-05   1.2104036e-04   3.4257714e-04   3.0331805e-04   5.3034676e-04   4.3702047e-04   5.1325205e-04   3.6685754e-04   3.6012201e-04   3.5247891e-04   7.6680939e-04  -4.4041997e-04   4.5411149e-04   2.2233433e-04   3.6435670e-04   1.7251325e-05   2.8999452e-04   2.3653523e-04  -1.7176311e-04  -1.1882044e-04   1.1029967e-04   3.4493249e-04   1.0755421e-03   1.2137060e-04
   3.7518668e-04   2.1150113e-04   3.7898531e-04   5.9766503e-04   6.7287336e-05   2.3880576e-04   3.8859522e-04   4.3676747e-04   3.5341812e-04   2.2051825e-04   2.8049102e-04   1.1589439e-04   2.8491899e-04   2.6425763e-04   2.8269476e-04   4.5262786e-04  -9.7996715e-05   3.4565048e-04  -3.2966153e-04   1.6651333e-04   9.4677662e-06   1.8474272e-04   1.5014835e-04   1.7252602e-04   3.1682142e-04   1.3523757e-05  -5.1785908e-05   1.4974785e-04   3.5403064e-04   3.0597523e-04   4.9581111e-04   5.9245220e-05   1.0720657e-03   7.6902710e-05   3.7985490e-04  -2.1813046e-04   6.8208197e-04  -4.5183816e-04   4.9621344e-04   2.6162216e-04   4.4395449e-04   8.8320725e-05   2.7016387e-04   3.6588413e-04  -9.5227406e-05   6.5404054e-04  -1.4689406e-04   3.8430261e-04  -1.3243080e-03   8.9498190e-04
